repovizz,framerate=200
0.007874,0.023622,-0.023622,-0.015748,-0.031496,-0.007874,-0.03937,0.023622,0.031496,-0.007874,0.,0.,-0.023622,0.007874,-0.007874,-0.007874,0.007874,-0.047244,-0.015748,0.,0.007874,-0.015748,-0.023622,0.007874,0.,-0.007874,0.007874,-0.03937,0.,-0.007874,-0.015748,-0.007874,0.015748,-0.031496,0.031496,0.,-0.062992,0.03937,0.,0.007874,-0.015748,0.007874,-0.007874,-0.015748,-0.047244,0.,-0.015748,-0.015748,0.031496,-0.023622,0.,-0.015748,-0.015748,0.,-0.015748,0.007874,0.007874,0.,0.007874,-0.007874,0.007874,-0.007874,-0.015748,-0.007874,-0.015748,-0.015748,-0.007874,-0.007874,0.007874,0.015748,-0.031496,0.015748,0.,-0.007874,-0.007874,-0.047244,0.,-0.007874,-0.007874,-0.015748,-0.015748,-0.015748,0.,-0.023622,0.,0.,0.,0.007874,-0.031496,-0.015748,-0.015748,0.,0.,0.015748,-0.015748,-0.015748,-0.023622,-0.015748,0.007874,0.,-0.031496,-0.023622,0.,-0.015748,0.,-0.015748,-0.031496,-0.023622,0.023622,0.047244,0.007874,-0.023622,-0.015748,-0.031496,-0.031496,-0.015748,-0.015748,0.,-0.007874,0.007874,-0.015748,0.007874,0.023622,-0.031496,-0.015748,-0.015748,0.03937,0.,-0.007874,0.,0.03937,-0.062992,-0.007874,-0.031496,0.007874,0.007874,0.015748,-0.047244,0.015748,-0.023622,0.015748,-0.031496,-0.086614,0.047244,0.007874,-0.007874,0.023622,-0.007874,-0.03937,0.031496,-0.070866,0.047244,-0.031496,0.007874,-0.015748,-0.023622,0.007874,-0.031496,-0.023622,-0.007874,0.007874,0.015748,0.,-0.007874,-0.03937,-0.007874,-0.031496,0.015748,-0.015748,-0.007874,0.015748,-0.015748,-0.007874,-0.007874,-0.015748,0.,-0.015748,-0.015748,-0.007874,-0.015748,0.007874,0.007874,0.007874,-0.023622,-0.015748,-0.015748,-0.007874,0.007874,0.015748,-0.015748,-0.031496,-0.015748,-0.007874,0.007874,0.007874,0.,-0.015748,0.007874,-0.015748,-0.007874,-0.007874,-0.007874,0.023622,-0.015748,0.,0.007874,-0.031496,-0.023622,0.007874,0.015748,-0.015748,-0.015748,0.023622,0.015748,-0.007874,-0.007874,-0.031496,-0.007874,0.023622,0.03937,-0.023622,0.,-0.023622,0.015748,0.,0.,-0.03937,-0.015748,0.007874,0.023622,-0.03937,0.015748,-0.007874,-0.007874,-0.015748,-0.03937,0.031496,0.047244,0.015748,0.062992,-0.070866,-0.11811,0.031496,0.07874,0.023622,-0.055118,0.031496,-0.102362,0.007874,-0.03937,-0.007874,0.007874,-0.062992,0.047244,-0.070866,-0.03937,0.023622,-0.007874,0.070866,-0.015748,-0.031496,0.007874,-0.015748,-0.015748,-0.023622,0.,0.047244,-0.055118,0.031496,-0.047244,-0.047244,0.03937,-0.047244,0.007874,-0.015748,-0.015748,0.,0.023622,-0.031496,0.,-0.007874,0.,-0.031496,0.,-0.023622,0.031496,-0.023622,-0.094488,0.015748,0.007874,0.007874,0.015748,-0.023622,-0.023622,0.031496,0.023622,-0.094488,-0.031496,0.03937,-0.007874,0.094488,-0.07874,-0.015748,0.007874,-0.023622,-0.023622,0.031496,-0.007874,0.055118,0.023622,-0.023622,-0.062992,0.007874,0.007874,0.,-0.07874,0.055118,0.03937,-0.03937,0.031496,-0.007874,-0.007874,0.015748,0.03937,-0.110236,-0.03937,0.,-0.047244,0.031496,-0.055118,-0.086614,0.062992,-0.015748,0.023622,-0.023622,0.031496,0.047244,0.094488,-0.015748,-0.03937,-0.007874,-0.086614,-0.031496,0.023622,-0.062992,0.03937,-0.023622,-0.031496,-0.007874,-0.023622,-0.070866,0.102362,0.070866,-0.094488,0.023622,-0.086614,-0.023622,0.102362,-0.07874,0.,0.047244,0.,-0.007874,-0.03937,0.031496,-0.03937,0.,0.015748,-0.007874,-0.007874,-0.03937,0.015748,0.023622,0.007874,0.023622,-0.070866,-0.062992,-0.094488,-0.007874,0.110236,-0.015748,0.007874,0.015748,-0.047244,-0.03937,-0.023622,-0.07874,0.055118,0.023622,0.047244,-0.031496,-0.055118,-0.031496,0.007874,0.110236,-0.070866,-0.047244,-0.023622,0.023622,-0.070866,0.,0.015748,0.070866,0.015748,-0.102362,0.03937,-0.03937,0.,0.015748,-0.023622,0.023622,-0.007874,-0.102362,-0.007874,0.007874,-0.047244,0.173228,-0.11811,-0.062992,-0.015748,0.070866,0.,-0.015748,0.,0.086614,-0.047244,-0.047244,-0.015748,0.007874,0.031496,-0.023622,0.03937,-0.110236,-0.070866,0.031496,0.,-0.03937,-0.03937,-0.03937,0.125984,0.062992,-0.181102,0.086614,-0.015748,0.031496,-0.07874,0.023622,0.125984,-0.062992,-0.070866,-0.11811,0.07874,0.03937,0.299213,-0.393701,-0.047244,0.07874,-0.133858,0.007874,0.220472,0.03937,0.03937,-0.188976,0.133858,-0.062992,0.031496,-0.141732,-0.094488,0.070866,0.188976,-0.275591,-0.181102,0.023622,0.070866,0.598425,-0.275591,-0.188976,-0.07874,0.102362,-0.023622,0.102362,-0.165354,0.031496,-0.047244,0.,0.086614,-0.165354,0.015748,0.,-0.07874,0.102362,-0.03937,-0.11811,-0.031496,0.393701,-0.007874,-0.11811,-0.055118,-0.094488,-0.062992,-0.015748,-0.007874,-0.086614,-0.015748,0.031496,-0.062992,-0.031496,0.133858,0.055118,0.086614,-0.070866,-0.102362,-0.023622,-0.165354,0.204724,-0.062992,-0.03937,-0.015748,0.086614,-0.228346,-0.007874,0.055118,-0.015748,0.377953,-0.23622,0.102362,0.023622,-0.055118,0.03937,0.110236,-0.141732,-0.094488,0.055118,0.110236,-0.275591,-0.125984,0.149606,-0.125984,0.141732,0.062992,-0.110236,0.,0.110236,0.03937,-0.007874,-0.11811,-0.047244,0.031496,0.007874,-0.102362,0.102362,-0.102362,-0.102362,-0.055118,0.133858,0.362205,-0.228346,-0.173228,0.15748,0.023622,-0.07874,0.,0.086614,0.055118,0.070866,-0.228346,-0.165354,0.149606,-0.007874,-0.220472,0.062992,0.007874,-0.07874,0.314961,-0.094488,-0.259843,0.055118,0.015748,0.23622,0.07874,-0.07874,-0.03937,0.086614,0.007874,-0.173228,-0.322835,-0.094488,0.062992,0.11811,0.811024,-0.645669,-0.007874,-0.031496,0.023622,-0.307087,0.031496,-0.15748,0.094488,0.23622,-0.133858,0.,-0.023622,-0.102362,0.307087,-0.322835,0.228346,-0.385827,0.330709,-0.228346,0.23622,-0.314961,0.377953,-0.062992,-0.023622,-0.377953,-0.645669,0.645669,-0.070866,0.708661,-0.559055,0.275591,-0.141732,0.141732,0.03937,-0.133858,0.259843,-0.212598,-0.031496,-0.251969,0.11811,0.244094,0.228346,-0.228346,0.291339,-0.314961,-0.488189,0.614173,-0.11811,0.362205,-0.88189,0.393701,-0.606299,0.220472,0.244094,-0.094488,0.03937,-0.086614,-0.015748,-0.204724,0.102362,0.370079,-0.464567,0.425197,-0.102362,-0.251969,0.401575,-0.661417,0.204724,-0.23622,0.488189,-0.007874,-0.440945,0.401575,-0.23622,0.724409,-0.370079,-0.299213,0.141732,-0.527559,-0.19685,0.362205,0.307087,-0.472441,0.464567,-0.173228,-0.19685,-0.031496,0.125984,0.031496,-0.204724,-0.055118,0.362205,-0.314961,-0.031496,-0.291339,0.574803,-0.267717,0.086614,0.84252,-0.393701,0.291339,-0.267717,-0.464567,-0.11811,-0.141732,0.322835,0.070866,-0.503937,0.385827,0.055118,-0.259843,-0.023622,-0.220472,0.307087,-0.015748,-0.511811,0.141732,0.275591,0.220472,0.488189,0.322835,-0.464567,-0.062992,0.062992,0.023622,0.031496,0.,-0.251969,0.181102,0.165354,-0.188976,0.055118,-0.314961,-0.173228,0.685039,-0.267717,-0.047244,0.007874,-0.181102,0.015748,-0.086614,0.023622,0.125984,0.244094,-0.251969,-0.055118,-0.062992,-0.102362,0.03937,-0.062992,0.062992,0.110236,-0.015748,-0.055118,-0.015748,0.023622,-0.03937,0.023622,0.007874,-0.055118,0.015748,0.023622,-0.102362,-0.007874,0.031496,0.03937,0.,0.,0.070866,0.,-0.023622,-0.031496,-0.015748,-0.007874,0.,0.015748,-0.007874,-0.062992,0.007874,0.015748,-0.03937,-0.023622,-0.015748,-0.007874,-0.03937,0.023622,-0.015748,-0.007874,0.007874,-0.062992,0.047244,-0.03937,-0.015748,0.,-0.007874,-0.007874,-0.031496,0.03937,0.023622,-0.031496,-0.023622,0.,-0.007874,0.031496,-0.055118,0.03937,-0.007874,-0.023622,0.03937,-0.070866,0.023622,0.047244,-0.031496,0.015748,0.031496,-0.110236,0.062992,0.,0.062992,-0.023622,-0.031496,0.,-0.023622,-0.055118,0.023622,0.047244,0.007874,-0.047244,0.047244,-0.023622,0.047244,-0.031496,-0.047244,0.031496,0.141732,-0.007874,-0.070866,-0.110236,-0.401575,0.267717,0.141732,-0.07874,-0.110236,-0.110236,0.07874,0.015748,0.015748,-0.07874,0.015748,-0.015748,-0.023622,-0.070866,0.070866,-0.007874,0.110236,0.062992,-0.251969,0.070866,-0.023622,0.03937,-0.007874,-0.007874,0.03937,0.03937,-0.023622,-0.015748,-0.015748,-0.03937,-0.031496,-0.03937,0.055118,0.007874,0.047244,-0.023622,-0.015748,-0.03937,-0.015748,0.031496,-0.047244,0.007874,-0.055118,0.007874,0.,-0.031496,0.062992,-0.070866,-0.086614,0.015748,0.007874,0.110236,0.015748,-0.031496,-0.031496,-0.047244,0.,0.03937,0.007874,-0.023622,-0.007874,0.015748,0.,-0.015748,0.007874,0.,-0.023622,-0.03937,-0.007874,-0.023622,0.007874,0.007874,0.023622,-0.015748,0.007874,-0.07874,-0.055118,-0.047244,-0.007874,0.007874,0.023622,-0.023622,0.015748,0.,-0.047244,0.,0.007874,0.007874,-0.007874,0.015748,-0.007874,0.086614,-0.031496,-0.086614,-0.007874,-0.102362,0.15748,0.03937,-0.094488,0.03937,0.03937,-0.023622,-0.007874,0.007874,-0.023622,0.070866,-0.07874,-0.031496,0.023622,-0.023622,-0.070866,-0.015748,0.07874,0.062992,0.055118,-0.11811,-0.181102,0.086614,-0.031496,0.149606,-0.086614,-0.015748,0.07874,-0.086614,-0.007874,0.023622,0.015748,-0.015748,0.007874,-0.055118,0.007874,-0.03937,-0.070866,0.031496,0.062992,-0.055118,-0.07874,-0.07874,-0.165354,0.204724,0.19685,-0.062992,0.007874,-0.047244,-0.031496,-0.062992,-0.023622,-0.007874,0.110236,0.031496,-0.047244,-0.133858,0.,0.031496,-0.094488,0.,-0.023622,0.023622,0.204724,-0.062992,-0.07874,0.023622,-0.031496,-0.007874,0.,-0.031496,-0.023622,0.094488,0.031496,-0.086614,-0.007874,0.015748,-0.094488,0.023622,0.031496,-0.133858,-0.031496,0.031496,0.03937,0.188976,-0.086614,-0.07874,-0.023622,0.,0.015748,-0.055118,-0.055118,-0.007874,-0.03937,-0.03937,0.047244,0.110236,0.062992,-0.07874,-0.070866,0.055118,-0.031496,-0.062992,-0.07874,0.,0.047244,0.086614,-0.047244,0.007874,-0.023622,-0.070866,-0.062992,-0.094488,0.023622,0.110236,0.094488,-0.125984,-0.023622,0.102362,-0.055118,-0.15748,0.086614,0.03937,-0.23622,-0.015748,0.047244,0.086614,0.188976,-0.133858,-0.070866,0.047244,0.031496,0.141732,0.055118,-0.070866,-0.125984,-0.07874,-0.062992,0.023622,-0.086614,0.03937,0.047244,0.173228,0.007874,-0.055118,-0.102362,-0.141732,0.11811,-0.165354,-0.086614,0.031496,0.283465,-0.15748,0.149606,-0.11811,-0.007874,0.062992,0.023622,-0.03937,-0.110236,-0.125984,0.141732,0.007874,-0.141732,-0.173228,0.07874,0.149606,-0.031496,0.023622,0.291339,-0.275591,0.03937,0.007874,0.015748,0.007874,-0.19685,0.11811,-0.102362,0.03937,0.133858,0.19685,-0.503937,-0.023622,-0.102362,0.330709,-0.23622,0.,0.15748,-0.07874,-0.047244,0.062992,-0.047244,0.133858,0.015748,-0.007874,-0.165354,-0.133858,0.102362,0.125984,0.03937,-0.055118,0.094488,-0.086614,0.03937,-0.062992,-0.440945,-0.007874,0.165354,0.385827,0.244094,-0.614173,0.188976,0.007874,0.03937,-0.15748,-0.070866,-0.007874,0.03937,-0.228346,-0.125984,-0.055118,0.086614,-0.362205,-0.102362,0.07874,-0.125984,0.354331,-0.291339,-0.228346,0.11811,0.220472,0.023622,-0.07874,0.11811,0.07874,0.015748,-0.354331,-0.204724,-0.070866,0.275591,0.244094,-0.244094,-0.338583,0.03937,-0.023622,0.275591,-0.220472,0.307087,0.23622,-0.354331,-0.094488,0.070866,0.149606,0.023622,-0.307087,-0.181102,-0.062992,0.267717,0.440945,-0.275591,-0.448819,0.346457,0.488189,-0.070866,-0.188976,0.047244,-0.07874,-0.007874,-0.220472,-0.251969,0.03937,0.181102,0.267717,-0.362205,0.,0.220472,-0.047244,0.07874,-0.062992,-0.086614,-0.377953,0.133858,0.110236,0.212598,0.03937,-0.023622,0.047244,0.299213,-0.244094,-0.559055,-0.212598,-0.314961,0.314961,0.15748,-0.19685,-0.464567,0.354331,0.314961,-0.488189,-0.433071,0.11811,-0.574803,0.850394,-0.84252,0.165354,0.149606,0.015748,-0.244094,0.086614,-0.188976,-0.818898,1.,0.015748,0.669291,-0.755906,-0.314961,0.15748,0.259843,-0.149606,0.606299,-0.834646,0.133858,0.385827,0.370079,-0.346457,0.488189,-0.055118,0.212598,0.385827,-0.795276,0.88189,-0.88189,-0.19685,0.03937,-0.173228,-0.125984,-0.055118,0.393701,-0.480315,0.149606,0.574803,-0.314961,-0.401575,0.031496,0.637795,0.370079,-0.354331,-0.188976,-0.291339,-0.566929,0.748031,0.188976,-0.582677,0.299213,-0.385827,0.393701,-0.220472,-0.362205,0.614173,0.425197,-0.409449,-0.275591,0.354331,-0.795276,0.614173,-0.125984,0.496063,0.275591,-0.393701,-0.480315,0.055118,0.598425,-0.149606,0.551181,-0.606299,-0.251969,-0.251969,-0.527559,0.047244,-0.456693,0.937008,-0.086614,-0.19685,0.629921,-0.897638,-0.141732,-0.472441,-0.496063,0.905512,0.409449,-0.03937,-0.417323,-0.370079,0.23622,0.149606,-0.15748,0.228346,0.110236,0.007874,-0.259843,0.023622,0.055118,-0.110236,0.031496,0.173228,0.007874,-0.062992,-0.031496,-0.188976,0.031496,0.03937,0.19685,0.015748,-0.047244,-0.015748,-0.031496,0.007874,-0.299213,0.165354,0.007874,0.023622,0.,-0.023622,-0.023622,0.,-0.015748,-0.015748,-0.03937,0.015748,-0.031496,0.015748,-0.023622,0.023622,0.023622,-0.031496,0.031496,-0.062992,0.047244,-0.086614,0.070866,-0.023622,-0.047244,0.03937,0.,-0.062992,0.007874,0.,0.,0.007874,-0.023622,-0.023622,0.,-0.007874,0.,-0.015748,0.015748,-0.015748,0.015748,0.015748,-0.055118,0.,0.,0.03937,0.015748,0.,-0.015748,-0.023622,-0.015748,-0.007874,0.,0.007874,-0.031496,0.007874,0.,0.023622,-0.015748,-0.007874,0.,-0.062992,0.031496,-0.015748,-0.031496,0.007874,-0.023622,0.,-0.015748,0.007874,0.007874,-0.015748,0.007874,0.,-0.023622,-0.023622,-0.015748,0.007874,-0.007874,-0.007874,-0.007874,0.,0.023622,-0.03937,-0.031496,0.062992,0.015748,-0.015748,-0.031496,0.047244,-0.015748,-0.07874,0.055118,0.023622,-0.047244,0.015748,-0.015748,0.070866,-0.031496,0.015748,-0.023622,0.031496,-0.094488,0.03937,-0.047244,-0.149606,0.023622,0.055118,0.047244,-0.07874,0.023622,-0.015748,-0.023622,-0.102362,0.055118,0.,-0.007874,0.015748,0.015748,0.,0.015748,-0.047244,-0.023622,-0.007874,-0.015748,0.015748,-0.007874,-0.023622,0.007874,-0.015748,-0.007874,-0.015748,0.047244,0.,-0.023622,0.007874,-0.110236,-0.047244,0.070866,0.055118,-0.007874,-0.055118,0.,0.007874,-0.031496,0.031496,-0.062992,0.055118,-0.062992,-0.086614,0.055118,0.03937,0.,0.070866,-0.11811,-0.133858,0.015748,0.055118,0.023622,-0.023622,-0.070866,0.062992,-0.03937,-0.023622,-0.015748,0.023622,-0.023622,-0.062992,-0.031496,-0.070866,0.110236,-0.070866,0.165354,0.007874,-0.094488,0.,-0.062992,0.055118,0.055118,-0.015748,-0.062992,-0.047244,-0.047244,0.102362,0.007874,-0.047244,-0.023622,0.03937,-0.062992,0.,-0.015748,-0.047244,0.07874,0.,0.03937,0.015748,-0.031496,0.015748,-0.023622,0.023622,0.03937,-0.023622,0.031496,-0.055118,0.015748,0.03937,-0.015748,-0.110236,0.03937,-0.062992,-0.03937,0.03937,0.007874,0.023622,-0.062992,0.03937,-0.055118,-0.015748,-0.03937,0.03937,0.094488,-0.070866,0.031496,0.,-0.015748,0.007874,-0.047244,-0.031496,-0.031496,-0.031496,-0.007874,-0.015748,0.07874,-0.031496,0.055118,-0.03937,-0.031496,-0.007874,0.031496,-0.055118,-0.055118,-0.031496,-0.125984,0.007874,-0.007874,0.07874,0.07874,0.007874,-0.031496,-0.055118,-0.007874,-0.031496,-0.031496,0.055118,-0.015748,-0.055118,-0.055118,-0.055118,-0.023622,0.023622,0.,-0.007874,0.031496,0.047244,0.,0.03937,-0.03937,0.031496,0.,-0.023622,-0.023622,-0.007874,0.023622,-0.03937,0.007874,-0.007874,-0.047244,-0.055118,-0.007874,-0.015748,0.031496,0.023622,-0.007874,-0.031496,-0.062992,-0.062992,0.094488,0.070866,-0.031496,-0.031496,0.015748,0.03937,0.007874,-0.15748,-0.102362,0.03937,0.062992,0.11811,0.047244,-0.102362,-0.110236,0.055118,0.11811,-0.094488,-0.047244,-0.070866,-0.03937,0.023622,0.007874,0.062992,0.007874,-0.007874,-0.03937,0.086614,-0.133858,-0.007874,0.094488,-0.007874,0.015748,-0.070866,0.047244,-0.188976,0.031496,-0.094488,0.094488,-0.070866,0.031496,-0.11811,0.110236,-0.204724,0.031496,0.125984,-0.267717,0.204724,0.031496,-0.173228,-0.23622,-0.047244,0.03937,0.377953,-0.031496,0.070866,0.03937,-0.07874,-0.094488,-0.086614,-0.102362,0.086614,0.165354,0.070866,0.173228,-0.11811,0.047244,0.338583,-0.181102,-0.401575,0.102362,0.03937,-0.062992,0.228346,-0.173228,0.007874,0.007874,-0.165354,-0.19685,0.23622,0.,-0.023622,0.055118,0.,-0.110236,0.188976,0.007874,0.133858,-0.149606,-0.173228,-0.023622,0.055118,0.03937,0.023622,-0.244094,-0.031496,0.023622,0.244094,0.086614,-0.307087,0.062992,-0.133858,0.094488,-0.102362,0.11811,0.173228,-0.110236,-0.102362,0.,-0.023622,0.133858,-0.070866,-0.047244,-0.023622,0.173228,-0.19685,0.165354,-0.03937,0.023622,-0.244094,0.173228,-0.125984,-0.165354,-0.094488,0.055118,0.133858,-0.165354,-0.338583,0.244094,0.354331,-0.03937,0.566929,-0.244094,-0.188976,-0.244094,0.102362,0.133858,-0.251969,-0.015748,-0.409449,-0.220472,0.377953,0.291339,0.133858,-0.015748,-0.086614,0.141732,0.299213,-0.322835,-0.03937,-0.23622,0.173228,0.023622,-0.133858,-0.086614,0.086614,0.086614,0.070866,-0.259843,0.07874,-0.173228,0.220472,-0.102362,-0.15748,0.244094,-0.88189,0.834646,-0.070866,0.062992,-0.188976,-0.267717,0.149606,-0.086614,0.19685,0.346457,-0.047244,-0.291339,-0.259843,-0.149606,-0.622047,0.748031,0.173228,0.377953,-0.102362,-0.76378,-0.055118,0.204724,0.015748,0.07874,-0.173228,-0.275591,0.125984,0.220472,0.228346,0.102362,0.133858,-0.527559,0.425197,-0.228346,0.102362,0.204724,-0.188976,-0.259843,0.393701,0.031496,0.047244,0.346457,-0.677165,0.125984,-0.19685,0.275591,-0.708661,0.425197,-0.149606,-0.110236,0.488189,-0.354331,0.669291,-0.133858,-0.275591,0.188976,0.244094,-0.393701,0.204724,0.133858,-0.23622,0.062992,0.,0.244094,-0.133858,0.322835,0.110236,0.055118,0.409449,0.015748,-0.062992,-1.007874,-0.125984,-0.448819,0.779528,-0.779528,-0.566929,-0.094488,0.346457,-0.393701,-0.055118,-0.80315,0.15748,-0.181102,-0.181102,1.,-0.212598,0.417323,-0.125984,-0.023622,0.637795,-0.314961,-0.19685,-0.244094,-0.141732,-0.661417,0.92126,-0.724409,-0.779528,1.,-0.755906,0.677165,-0.566929,0.433071,0.047244,-0.07874,-0.086614,0.007874,-0.047244,-0.015748,-0.007874,-0.03937,0.11811,-0.03937,-0.007874,-0.007874,0.007874,-0.007874,0.007874,-0.007874,-0.023622,-0.007874,-0.031496,0.007874,-0.031496,0.,0.047244,-0.015748,0.015748,0.,-0.055118,-0.031496,-0.007874,-0.015748,0.,0.,0.007874,-0.007874,0.,0.,-0.023622,-0.015748,-0.007874,-0.023622,-0.007874,0.03937,-0.007874,-0.007874,0.,-0.03937,0.031496,0.023622,0.,-0.023622,-0.031496,0.015748,-0.031496,0.007874,-0.03937,-0.023622,-0.015748,0.015748,-0.03937,0.015748,-0.007874,-0.023622,0.007874,0.,-0.007874,0.015748,-0.015748,0.007874,-0.023622,-0.094488,0.047244,0.023622,-0.023622,0.015748,0.,0.023622,0.,0.,-0.007874,0.023622,-0.015748,-0.007874,-0.055118,-0.062992,0.023622,-0.055118,-0.03937,0.031496,0.086614,0.055118,0.,-0.055118,-0.070866,0.055118,-0.023622,-0.023622,-0.031496,0.015748,-0.007874,0.015748,0.047244,-0.007874,-0.102362,-0.086614,-0.031496,0.055118,0.,0.015748,-0.007874,0.133858,-0.086614,-0.07874,0.007874,-0.204724,0.181102,-0.023622,-0.062992,0.07874,-0.125984,0.031496,0.07874,-0.094488,-0.07874,-0.15748,0.062992,0.19685,-0.031496,-0.015748,-0.267717,-0.267717,0.110236,0.346457,-0.023622,0.228346,-0.031496,-0.023622,0.055118,-0.425197,0.173228,-0.07874,0.062992,-0.070866,0.,0.007874,0.023622,0.007874,0.047244,-0.102362,-0.023622,0.03937,0.055118,-0.062992,-0.023622,0.070866,0.023622,0.007874,-0.086614,-0.015748,-0.062992,0.086614,0.007874,0.055118,-0.055118,0.070866,-0.023622,0.03937,-0.047244,-0.133858,0.062992,0.031496,-0.062992,-0.023622,0.031496,-0.031496,0.047244,-0.03937,-0.023622,-0.031496,0.094488,-0.07874,0.007874,-0.031496,0.,0.023622,-0.141732,-0.165354,-0.023622,0.259843,0.031496,0.047244,0.015748,-0.062992,-0.031496,0.031496,0.062992,-0.047244,0.086614,0.007874,-0.03937,-0.031496,-0.062992,-0.015748,-0.023622,-0.023622,0.07874,0.11811,-0.031496,0.007874,-0.086614,-0.03937,-0.055118,0.086614,0.015748,-0.047244,-0.015748,-0.023622,-0.031496,-0.03937,0.062992,-0.102362,-0.015748,0.023622,-0.062992,-0.023622,0.086614,-0.062992,0.023622,-0.047244,-0.102362,0.15748,-0.031496,-0.023622,0.,-0.031496,0.047244,-0.015748,0.023622,-0.023622,0.031496,0.094488,-0.047244,0.03937,0.070866,0.031496,-0.007874,-0.055118,-0.11811,-0.023622,0.023622,0.055118,-0.11811,0.023622,0.047244,-0.023622,-0.055118,0.031496,0.007874,-0.055118,0.,-0.023622,0.070866,0.007874,-0.03937,-0.086614,0.023622,0.023622,-0.047244,0.015748,0.015748,-0.015748,0.086614,0.062992,-0.03937,-0.19685,0.015748,-0.031496,0.03937,0.031496,-0.015748,0.007874,-0.007874,-0.015748,0.110236,0.,-0.03937,-0.055118,-0.086614,0.047244,0.031496,-0.055118,0.,-0.031496,-0.03937,0.141732,0.023622,-0.055118,-0.102362,-0.015748,0.031496,0.031496,0.086614,-0.102362,-0.047244,-0.015748,-0.007874,-0.055118,0.047244,0.070866,0.031496,-0.11811,0.,-0.031496,-0.055118,0.015748,-0.023622,0.015748,0.007874,0.031496,0.015748,0.007874,0.110236,-0.07874,-0.220472,-0.007874,0.102362,0.212598,-0.173228,0.125984,-0.094488,0.047244,-0.062992,-0.047244,0.,0.055118,-0.110236,-0.031496,-0.03937,-0.03937,0.062992,0.102362,-0.007874,-0.141732,-0.007874,-0.03937,0.007874,0.07874,0.141732,-0.110236,-0.102362,0.062992,-0.023622,-0.181102,0.094488,-0.204724,-0.015748,-0.055118,0.094488,-0.062992,0.149606,-0.141732,-0.070866,0.220472,0.055118,-0.15748,-0.055118,0.141732,-0.19685,-0.125984,0.070866,0.11811,-0.047244,-0.03937,-0.070866,0.062992,0.188976,-0.204724,-0.086614,0.015748,0.015748,0.141732,-0.15748,-0.244094,0.244094,0.259843,-0.133858,-0.165354,0.094488,-0.031496,-0.07874,-0.141732,0.133858,0.165354,-0.015748,0.102362,-0.15748,0.015748,0.062992,-0.07874,-0.007874,-0.007874,-0.023622,-0.141732,0.023622,-0.07874,-0.03937,0.062992,0.110236,0.007874,0.07874,0.15748,-0.15748,-0.110236,0.070866,0.11811,-0.07874,0.03937,-0.11811,0.,-0.031496,-0.055118,0.023622,0.03937,-0.165354,0.125984,0.062992,0.062992,-0.007874,-0.070866,0.,-0.07874,0.015748,-0.07874,0.07874,-0.062992,-0.015748,-0.047244,0.023622,0.102362,-0.102362,-0.086614,-0.055118,0.102362,0.007874,0.125984,-0.062992,0.07874,-0.094488,-0.015748,-0.070866,0.055118,-0.03937,0.015748,-0.133858,-0.165354,0.299213,0.267717,-0.15748,0.055118,-0.11811,0.,0.188976,-0.07874,-0.03937,-0.110236,0.07874,0.047244,-0.086614,-0.062992,0.102362,-0.07874,-0.015748,-0.141732,-0.283465,-0.11811,0.141732,0.362205,0.133858,-0.181102,0.055118,0.03937,-0.283465,-0.094488,0.094488,-0.055118,0.062992,0.322835,-0.19685,-0.181102,0.125984,-0.133858,-0.165354,0.181102,-0.086614,0.496063,-0.133858,0.173228,-0.307087,0.259843,-0.275591,-0.047244,0.393701,0.535433,-0.03937,-0.094488,-0.448819,-0.622047,0.929134,-0.700787,-0.275591,-0.165354,-0.007874,-0.377953,0.188976,0.228346,-0.259843,-0.03937,-0.03937,-0.102362,0.165354,-0.181102,-0.472441,0.307087,-0.354331,-0.055118,0.023622,-0.291339,-0.440945,0.362205,0.590551,-0.110236,-0.212598,-0.055118,0.535433,-0.03937,-0.220472,0.275591,0.251969,-0.047244,0.062992,-0.11811,0.472441,-0.582677,0.055118,0.338583,-0.653543,0.062992,-0.173228,0.732283,-0.590551,0.062992,-0.047244,0.062992,0.,-0.023622,0.094488,0.314961,-0.905512,-0.322835,0.968504,-0.76378,-0.433071,-0.582677,1.,-0.181102,-0.653543,-0.047244,0.354331,0.149606,-0.535433,-0.370079,-0.110236,0.15748,0.322835,0.519685,-0.480315,0.023622,0.566929,-0.80315,-0.433071,-0.425197,0.472441,0.511811,-0.708661,-0.03937,0.629921,0.637795,-0.102362,-0.015748,-0.125984,-0.070866,0.165354,-0.535433,0.480315,-0.03937,-0.338583,0.307087,0.165354,-0.212598,-0.015748,0.173228,-0.251969,-0.031496,0.023622,-0.937008,0.614173,0.125984,-0.102362,0.503937,-0.307087,-0.165354,0.102362,-0.181102,0.07874,0.,0.133858,-0.047244,-0.11811,0.11811,0.,0.062992,0.03937,-0.291339,-0.220472,0.377953,-0.188976,0.362205,-0.251969,-0.19685,0.141732,-0.141732,0.047244,-0.070866,-0.086614,0.,0.062992,-0.251969,0.299213,0.015748,-0.149606,0.259843,-0.165354,0.110236,0.086614,0.047244,-0.133858,-0.102362,0.023622,-0.023622,-0.055118,0.023622,0.007874,0.070866,0.015748,-0.110236,-0.007874,0.015748,-0.015748,0.007874,0.,0.,-0.015748,0.,0.007874,-0.055118,-0.023622,-0.023622,-0.023622,0.047244,-0.007874,0.007874,0.007874,0.007874,-0.007874,-0.015748,0.015748,-0.031496,0.,0.015748,-0.007874,-0.007874,-0.015748,-0.015748,-0.015748,-0.023622,0.015748,0.007874,-0.015748,-0.007874,-0.023622,0.047244,0.,-0.023622,-0.007874,-0.015748,-0.03937,-0.023622,0.,0.03937,-0.031496,0.,0.,0.03937,0.015748,0.,-0.055118,0.047244,-0.023622,0.015748,0.007874,-0.220472,0.125984,0.015748,0.055118,0.007874,-0.055118,0.03937,-0.023622,-0.062992,-0.007874,0.,-0.07874,0.015748,-0.031496,0.007874,-0.023622,-0.007874,-0.031496,-0.015748,-0.007874,0.,0.,0.07874,-0.03937,-0.015748,0.007874,-0.133858,0.094488,-0.023622,0.007874,-0.007874,-0.023622,0.007874,-0.015748,-0.015748,-0.023622,0.007874,-0.015748,-0.015748,0.,-0.015748,-0.015748,0.007874,-0.007874,0.007874,-0.007874,0.023622,0.015748,-0.007874,-0.023622,-0.055118,0.,0.,-0.007874,-0.015748,0.015748,-0.015748,0.,-0.007874,-0.007874,0.007874,-0.007874,-0.015748,-0.007874,-0.031496,-0.031496,0.023622,-0.023622,0.007874,0.015748,0.,-0.015748,0.,0.03937,0.007874,-0.015748,-0.015748,0.,-0.031496,0.,0.031496,-0.007874,-0.015748,-0.031496,0.,-0.023622,-0.007874,0.03937,-0.007874,0.,-0.015748,-0.023622,-0.062992,0.03937,-0.062992,0.,0.007874,-0.086614,0.062992,-0.015748,-0.055118,0.023622,0.023622,-0.007874,0.,-0.023622,-0.015748,-0.007874,-0.031496,0.,0.023622,0.,0.,-0.015748,-0.015748,0.,-0.03937,0.,-0.070866,0.110236,0.047244,-0.055118,-0.023622,-0.047244,0.,0.015748,0.015748,-0.062992,0.070866,0.,-0.03937,-0.023622,-0.007874,0.007874,-0.031496,0.007874,0.,-0.055118,0.031496,0.023622,-0.047244,0.007874,0.11811,-0.094488,-0.031496,0.047244,-0.062992,0.03937,0.031496,0.,-0.070866,0.015748,-0.141732,0.07874,-0.023622,0.03937,-0.102362,-0.023622,0.070866,-0.023622,0.094488,-0.07874,0.086614,-0.023622,-0.047244,0.023622,-0.023622,-0.031496,0.047244,-0.047244,-0.023622,0.125984,-0.188976,0.047244,0.031496,-0.086614,0.204724,0.,-0.047244,-0.102362,-0.047244,0.03937,-0.007874,0.102362,-0.03937,-0.070866,0.102362,-0.062992,-0.055118,-0.062992,-0.03937,0.125984,0.173228,-0.086614,-0.165354,-0.055118,0.031496,-0.015748,0.055118,-0.110236,-0.047244,0.015748,-0.015748,-0.03937,-0.023622,-0.070866,0.062992,0.062992,0.007874,-0.015748,-0.007874,-0.110236,-0.031496,0.125984,0.055118,0.047244,-0.062992,-0.023622,-0.03937,-0.062992,0.007874,0.03937,-0.062992,0.023622,-0.03937,-0.023622,-0.062992,0.015748,0.062992,0.,-0.055118,0.,-0.023622,0.086614,-0.007874,0.015748,0.070866,-0.07874,-0.031496,-0.094488,-0.031496,-0.03937,0.070866,-0.031496,0.007874,0.047244,0.,0.015748,-0.062992,-0.015748,-0.015748,0.,0.007874,-0.007874,0.015748,-0.023622,0.047244,-0.070866,0.110236,-0.03937,-0.031496,-0.03937,0.023622,-0.047244,0.094488,0.,-0.141732,0.125984,-0.023622,-0.007874,-0.062992,-0.023622,-0.007874,0.03937,-0.07874,-0.015748,0.047244,-0.015748,0.03937,-0.031496,-0.047244,0.007874,-0.015748,0.110236,0.,-0.055118,0.03937,0.,-0.19685,0.047244,0.023622,-0.015748,0.031496,-0.031496,-0.015748,0.,0.062992,-0.015748,-0.007874,-0.110236,-0.023622,0.086614,-0.03937,0.007874,-0.031496,-0.055118,-0.023622,0.031496,0.023622,0.015748,0.007874,0.,-0.070866,0.015748,-0.023622,-0.007874,-0.015748,0.,-0.031496,-0.015748,0.,-0.023622,0.03937,-0.125984,0.070866,-0.047244,0.047244,0.031496,-0.047244,-0.047244,-0.070866,0.007874,0.015748,0.015748,-0.023622,0.023622,-0.015748,0.007874,-0.023622,-0.031496,0.023622,-0.015748,-0.015748,-0.047244,-0.015748,-0.007874,-0.015748,0.015748,-0.03937,-0.031496,0.047244,0.023622,0.047244,-0.062992,0.,0.070866,0.007874,-0.03937,-0.007874,0.015748,-0.047244,-0.007874,0.,0.,0.023622,-0.03937,-0.015748,0.015748,-0.015748,-0.03937,-0.055118,0.03937,0.,-0.015748,-0.03937,0.007874,0.,-0.007874,-0.031496,-0.007874,-0.007874,0.,-0.007874,-0.023622,0.086614,0.007874,0.007874,-0.031496,-0.062992,0.023622,0.023622,-0.023622,-0.047244,-0.023622,0.,0.,-0.007874,-0.03937,0.,-0.015748,-0.015748,0.023622,0.023622,0.047244,-0.007874,-0.007874,0.,-0.047244,0.,0.,-0.015748,-0.031496,0.007874,-0.023622,0.,0.031496,0.007874,0.007874,-0.03937,-0.03937,-0.015748,-0.007874,-0.007874,-0.023622,0.015748,0.,-0.023622,0.015748,0.,0.,0.,-0.055118,-0.055118,0.03937,0.023622,0.03937,0.015748,-0.015748,0.,0.03937,-0.031496,-0.007874,-0.023622,0.062992,0.,-0.007874,0.007874,0.,0.015748,0.023622,0.,0.007874,0.,-0.015748,-0.055118,-0.03937,-0.023622,-0.125984,-0.062992,-0.007874,-0.031496,0.015748,-0.070866,-0.015748,-0.023622,-0.03937,-0.070866,-0.062992,0.,-0.11811,-0.110236,-0.070866,0.055118,0.220472,0.275591,0.031496,0.,-0.015748,-0.03937,0.,0.015748,-0.031496,0.062992,-0.007874,-0.086614,0.015748,0.,0.015748,-0.007874,-0.03937,0.007874,0.007874,0.,-0.023622,0.,-0.007874,-0.015748,0.015748,0.007874,-0.015748,-0.03937,-0.007874,-0.007874,0.015748,-0.031496,-0.007874,-0.031496,0.023622,0.015748,-0.03937,0.023622,-0.07874,0.015748,0.,-0.007874,-0.031496,-0.015748,0.,0.,0.,-0.007874,0.015748,-0.015748,0.007874,0.,-0.047244,0.015748,-0.03937,0.015748,-0.007874,-0.015748,0.015748,0.,-0.007874,0.,-0.047244,-0.047244,0.023622,-0.023622,0.,0.015748,-0.007874,0.031496,-0.047244,0.,-0.070866,-0.023622,0.070866,0.007874,0.03937,-0.07874,0.023622,-0.007874,-0.03937,-0.023622,-0.023622,0.023622,-0.031496,0.,0.023622,-0.015748,0.007874,-0.015748,0.015748,-0.007874,-0.023622,0.,0.,-0.007874,-0.03937,0.007874,-0.023622,-0.03937,0.07874,-0.015748,0.023622,0.015748,0.,-0.055118,-0.03937,0.023622,-0.015748,0.023622,-0.031496,-0.015748,0.007874,0.,-0.03937,0.023622,0.023622,-0.015748,0.,-0.007874,-0.031496,-0.023622,0.007874,-0.023622,0.023622,-0.031496,-0.031496,-0.015748,0.,0.023622,-0.015748,-0.015748,-0.023622,0.,-0.007874,0.,-0.007874,-0.031496,-0.023622,0.015748,0.007874,0.,0.007874,-0.023622,0.,-0.023622,-0.031496,0.007874,0.,0.015748,0.015748,-0.03937,0.,0.023622,0.023622,-0.047244,-0.023622,0.007874,-0.015748,0.015748,0.007874,0.015748,-0.023622,-0.015748,0.007874,-0.015748,0.,-0.031496,-0.023622,-0.007874,0.007874,0.015748,-0.047244,0.,-0.007874,0.023622,0.007874,-0.031496,-0.023622,0.007874,-0.023622,-0.007874,-0.007874,-0.015748,0.007874,-0.023622,-0.015748,-0.007874,0.,0.007874,0.,-0.062992,-0.015748,-0.007874,0.015748,-0.031496,0.015748,0.015748,0.007874,-0.007874,0.023622,-0.007874,-0.007874,-0.023622,-0.023622,-0.015748,-0.023622,0.,0.007874,-0.007874,-0.015748,0.023622,-0.015748,-0.031496,-0.03937,-0.031496,-0.023622,-0.007874,-0.007874,0.055118,-0.055118,-0.015748,-0.055118,-0.086614,-0.110236,-0.125984,-0.102362,-0.023622,0.070866,0.125984,0.165354,0.094488,0.023622,-0.015748,-0.023622,0.007874,0.007874,0.,0.015748,-0.007874,-0.007874,-0.007874,-0.015748,0.,-0.015748,-0.023622,0.007874,-0.03937,0.055118,-0.015748,0.,0.007874,-0.015748,0.015748,0.023622,0.007874,-0.015748,-0.015748,0.,-0.023622,0.,0.,0.,-0.031496,-0.015748,0.,-0.023622,-0.007874,-0.023622,-0.023622,0.,0.031496,0.015748,0.,-0.015748,-0.031496,0.,0.015748,-0.023622,0.023622,-0.023622,-0.007874,0.007874,-0.023622,0.,-0.007874,-0.023622,0.,-0.023622,0.,0.007874,0.023622,-0.015748,-0.007874,-0.023622,-0.007874,0.015748,-0.023622,-0.023622,-0.023622,-0.007874,0.031496,-0.007874,0.007874,-0.007874,-0.007874,-0.031496,-0.023622,-0.023622,-0.015748,0.031496,-0.015748,-0.023622,-0.007874,0.007874,0.015748,-0.023622,-0.015748,-0.007874,-0.007874,0.007874,0.015748,-0.015748,-0.007874,0.007874,0.,-0.023622,-0.023622,-0.015748,0.,0.031496,-0.007874,0.007874,-0.007874,-0.015748,-0.007874,0.,-0.007874,-0.015748,-0.023622,-0.023622,0.007874,-0.007874,0.007874,0.007874,-0.031496,0.007874,-0.007874,-0.015748,0.,0.,-0.007874,0.015748,0.,0.015748,-0.007874,-0.015748,-0.007874,-0.007874,-0.007874,-0.023622,-0.007874,-0.023622,0.,0.007874,-0.007874,-0.015748,-0.007874,-0.015748,-0.007874,-0.007874,-0.015748,0.015748,0.,-0.007874,-0.007874,-0.007874,-0.007874,-0.015748,-0.023622,-0.007874,-0.023622,-0.015748,0.007874,-0.031496,-0.023622,0.,0.007874,-0.007874,0.,0.007874,0.,0.,0.,-0.007874,0.007874,0.,-0.015748,-0.007874,-0.015748,0.,0.,-0.007874,-0.007874,0.,-0.007874,-0.031496,-0.015748,0.,0.,0.007874,-0.007874,-0.015748,0.,0.,-0.015748,0.007874,-0.007874,-0.007874,-0.007874,-0.015748,0.007874,0.007874,0.,0.,0.,-0.007874,-0.007874,0.,0.,-0.015748,-0.007874,-0.007874,-0.007874,-0.015748,0.,-0.015748,0.015748,-0.023622,0.007874,-0.015748,-0.015748,-0.015748,-0.007874,0.,-0.007874,0.,0.015748,-0.007874,0.007874,-0.007874,-0.031496,0.007874,0.015748,0.,-0.007874,-0.023622,-0.055118,0.031496,-0.023622,0.015748,0.,0.,-0.015748,-0.023622,-0.007874,-0.023622,-0.015748,-0.031496,0.007874,0.,0.015748,-0.015748,0.007874,-0.015748,0.015748,0.015748,-0.023622,0.,0.,0.015748,-0.023622,0.,-0.023622,0.007874,0.007874,0.,-0.023622,0.007874,0.023622,-0.007874,-0.031496,0.015748,-0.015748,0.007874,-0.015748,-0.007874,-0.047244,0.,0.031496,0.015748,-0.023622,0.031496,-0.07874,-0.047244,0.047244,-0.015748,0.031496,-0.023622,-0.03937,0.007874,0.023622,0.,-0.086614,0.03937,-0.023622,0.062992,0.062992,-0.102362,-0.015748,0.015748,0.047244,-0.070866,-0.031496,0.015748,-0.023622,-0.055118,-0.031496,0.015748,0.047244,-0.047244,-0.023622,-0.015748,0.031496,-0.023622,0.015748,-0.007874,0.007874,0.,-0.015748,-0.070866,-0.015748,-0.023622,-0.062992,0.086614,-0.07874,0.070866,-0.031496,-0.062992,0.015748,-0.03937,0.023622,-0.047244,0.031496,-0.023622,0.055118,0.007874,-0.023622,0.015748,0.015748,-0.055118,-0.047244,0.062992,-0.031496,-0.023622,0.023622,-0.023622,0.,0.03937,-0.086614,0.07874,0.031496,-0.062992,0.,-0.062992,-0.023622,0.062992,0.023622,-0.070866,0.007874,0.,0.007874,0.,-0.023622,0.,0.015748,-0.03937,-0.047244,-0.007874,-0.015748,0.070866,-0.023622,-0.03937,-0.007874,0.,-0.015748,-0.047244,0.,0.007874,0.062992,0.015748,-0.023622,-0.031496,-0.015748,0.031496,0.015748,-0.015748,-0.03937,-0.015748,-0.007874,-0.007874,-0.055118,0.,-0.015748,-0.015748,0.07874,-0.007874,-0.070866,0.03937,0.07874,-0.047244,-0.015748,0.,-0.023622,-0.023622,0.023622,-0.031496,-0.007874,0.015748,-0.023622,-0.031496,-0.007874,0.,0.023622,0.055118,-0.015748,-0.047244,-0.015748,-0.007874,0.015748,-0.007874,0.023622,-0.007874,-0.007874,-0.023622,-0.015748,-0.062992,0.023622,-0.007874,-0.015748,0.015748,0.,-0.007874,-0.055118,0.023622,0.070866,-0.094488,-0.007874,0.047244,0.055118,-0.031496,0.007874,0.086614,-0.141732,0.007874,0.070866,-0.070866,-0.015748,-0.023622,-0.307087,0.055118,0.03937,0.11811,0.283465,-0.259843,-0.141732,0.220472,-0.007874,-0.07874,-0.007874,0.015748,-0.007874,-0.125984,-0.07874,0.102362,-0.015748,0.19685,-0.031496,-0.023622,-0.062992,-0.03937,0.062992,-0.125984,-0.15748,0.031496,0.23622,-0.031496,0.086614,-0.346457,0.086614,-0.047244,0.07874,-0.07874,0.023622,0.062992,0.023622,-0.19685,0.062992,-0.03937,-0.149606,0.582677,-0.212598,-0.094488,-0.031496,0.102362,0.007874,0.023622,0.031496,-0.181102,-0.110236,0.11811,-0.228346,0.173228,0.023622,-0.330709,0.448819,0.15748,-0.181102,-0.133858,0.015748,0.023622,-0.03937,-0.094488,0.102362,0.07874,-0.181102,0.047244,0.133858,-0.181102,-0.055118,-0.204724,0.031496,0.133858,0.094488,0.204724,-0.125984,-0.110236,0.,0.204724,-0.07874,-0.062992,-0.110236,0.141732,-0.015748,0.102362,-0.307087,0.062992,0.125984,-0.149606,0.023622,0.055118,0.11811,-0.551181,-0.015748,-0.244094,0.188976,0.496063,-0.031496,0.527559,-0.629921,0.07874,0.055118,-0.299213,-0.086614,-0.055118,0.244094,0.330709,-0.062992,0.055118,0.,-0.228346,-0.062992,0.007874,-0.149606,0.299213,0.,-0.181102,0.,0.181102,-0.188976,-0.086614,-0.149606,0.086614,-0.251969,0.149606,-0.110236,0.,0.023622,-0.007874,0.622047,-0.456693,0.370079,-0.307087,1.,-0.76378,-0.362205,-0.031496,0.133858,-0.141732,0.110236,-0.275591,0.440945,-0.023622,-0.181102,-0.370079,-0.330709,-0.181102,-0.251969,0.204724,-0.417323,0.559055,0.401575,-0.094488,-0.307087,0.275591,-0.062992,-0.070866,-0.023622,-0.023622,-0.346457,0.133858,0.007874,0.314961,-0.007874,-0.212598,-0.251969,-0.850394,0.700787,0.401575,0.188976,0.314961,-0.496063,0.03937,-0.212598,0.228346,-0.338583,-0.070866,-0.259843,0.370079,0.15748,0.03937,0.346457,-0.685039,0.622047,0.330709,-0.409449,-0.03937,-0.511811,0.464567,0.338583,-0.133858,0.047244,-0.338583,-0.133858,0.23622,-0.417323,-0.062992,0.094488,-0.385827,0.574803,0.086614,-0.362205,0.141732,0.220472,-0.149606,-0.03937,-0.047244,0.047244,0.015748,-0.03937,-0.007874,-0.031496,0.,0.,-0.007874,0.015748,0.,0.007874,-0.031496,0.015748,-0.015748,0.,-0.007874,-0.007874,0.007874,-0.023622,0.007874,-0.03937,-0.007874,-0.007874,-0.007874,-0.015748,0.03937,-0.031496,0.015748,-0.007874,-0.047244,0.03937,0.,-0.007874,-0.015748,-0.007874,-0.007874,-0.023622,-0.007874,0.031496,-0.007874,0.,-0.015748,-0.015748,-0.007874,0.,-0.007874,0.007874,-0.023622,-0.007874,0.,-0.007874,-0.015748,0.007874,-0.007874,-0.055118,0.015748,-0.007874,0.,-0.015748,0.,-0.015748,0.007874,-0.007874,-0.007874,-0.015748,0.,-0.007874,-0.007874,0.,-0.007874,-0.015748,-0.015748,-0.007874,-0.015748,0.,0.,-0.007874,-0.015748,-0.015748,0.,0.007874,-0.007874,0.,0.007874,-0.007874,0.007874,-0.062992,-0.015748,0.023622,-0.031496,-0.023622,0.047244,0.007874,-0.03937,-0.062992,0.015748,0.007874,-0.023622,-0.015748,0.007874,0.03937,0.023622,-0.070866,-0.015748,0.031496,-0.047244,0.173228,-0.070866,-0.141732,0.07874,0.,-0.007874,-0.031496,-0.007874,-0.015748,0.,-0.007874,-0.015748,-0.031496,0.070866,0.,-0.047244,-0.007874,-0.03937,-0.055118,0.102362,0.07874,-0.062992,-0.070866,0.102362,-0.03937,0.031496,0.007874,-0.015748,-0.070866,0.07874,-0.03937,-0.031496,-0.023622,-0.031496,0.125984,-0.007874,0.047244,-0.047244,-0.133858,-0.062992,0.102362,0.007874,0.15748,-0.070866,0.07874,-0.086614,0.007874,-0.110236,0.007874,-0.03937,-0.07874,0.062992,-0.102362,-0.023622,-0.03937,0.023622,0.023622,-0.062992,0.031496,-0.047244,-0.228346,0.07874,0.031496,-0.07874,0.204724,-0.11811,-0.015748,0.110236,0.055118,-0.062992,-0.047244,-0.062992,-0.133858,0.015748,-0.055118,-0.007874,0.102362,-0.031496,0.062992,0.102362,-0.110236,0.086614,-0.031496,-0.086614,-0.062992,0.07874,0.023622,0.07874,-0.031496,0.023622,0.,0.023622,-0.015748,-0.015748,-0.007874,-0.023622,-0.015748,-0.055118,-0.007874,-0.023622,0.055118,0.,0.,-0.015748,-0.023622,-0.007874,0.031496,0.,-0.03937,-0.015748,0.,-0.007874,0.023622,-0.055118,-0.023622,0.007874,0.047244,0.086614,-0.070866,-0.031496,0.007874,-0.031496,0.062992,-0.031496,-0.086614,-0.023622,0.015748,0.03937,0.007874,0.007874,-0.007874,-0.023622,-0.055118,-0.031496,0.031496,-0.015748,-0.007874,0.023622,0.007874,-0.031496,-0.023622,0.,-0.015748,-0.031496,-0.023622,-0.015748,-0.07874,-0.023622,0.102362,0.031496,-0.031496,-0.023622,-0.007874,-0.015748,0.047244,-0.047244,-0.07874,0.031496,0.015748,-0.055118,-0.055118,0.031496,0.031496,-0.086614,0.023622,0.007874,0.03937,-0.15748,0.,0.,0.11811,-0.133858,-0.228346,-0.047244,-0.047244,0.370079,0.165354,-0.070866,-0.07874,0.15748,0.181102,-0.220472,-0.07874,0.15748,-0.110236,-0.07874,0.062992,0.031496,-0.031496,-0.070866,0.125984,0.007874,0.03937,-0.15748,-0.015748,0.07874,0.055118,-0.346457,-0.204724,0.220472,0.07874,0.472441,-0.125984,-0.188976,-0.125984,0.173228,-0.015748,-0.19685,0.055118,-0.03937,-0.062992,0.031496,0.07874,-0.456693,0.165354,-0.03937,0.07874,0.503937,-0.244094,-0.047244,-0.125984,-0.031496,-0.007874,0.023622,-0.031496,-0.055118,-0.173228,0.330709,0.031496,-0.173228,-0.220472,-0.015748,0.,0.314961,0.244094,-0.354331,-0.031496,0.007874,-0.015748,-0.11811,-0.03937,0.125984,0.07874,-0.023622,-0.165354,-0.141732,-0.047244,0.362205,0.188976,-0.283465,-0.149606,0.472441,-0.141732,-0.23622,0.070866,0.125984,-0.204724,-0.110236,0.291339,-0.015748,-0.07874,-0.03937,-0.629921,-0.181102,0.07874,0.062992,0.614173,-0.645669,-0.322835,0.220472,0.590551,-0.425197,0.496063,0.322835,-0.425197,-0.181102,-0.047244,-0.11811,0.086614,-0.19685,0.031496,0.086614,-0.133858,-0.165354,-0.102362,-0.188976,0.307087,0.401575,-0.031496,0.307087,-0.181102,-0.283465,-0.031496,-0.007874,0.141732,-0.251969,0.023622,0.070866,0.212598,-0.031496,0.015748,-0.07874,-1.007874,1.,-0.047244,0.527559,-0.023622,-0.212598,0.023622,0.055118,-0.110236,0.094488,-0.314961,-0.275591,0.84252,0.07874,-1.007874,0.141732,0.070866,0.19685,0.299213,-0.433071,0.23622,-0.094488,0.007874,-0.393701,0.094488,-0.598425,0.629921,0.866142,-0.582677,0.519685,0.023622,-0.685039,-0.07874,0.527559,-0.212598,-0.15748,-0.307087,0.031496,-0.102362,0.047244,-0.291339,0.023622,0.11811,-0.543307,0.834646,-0.433071,0.188976,0.307087,-0.086614,0.094488,-0.228346,-0.094488,-0.03937,0.267717,-0.188976,-0.220472,0.173228,-0.251969,0.110236,0.433071,-0.92126,-0.133858,0.724409,0.173228,0.267717,-0.377953,0.15748,0.023622,0.031496,-0.11811,-0.047244,0.007874,-0.03937,-0.007874,-0.007874,0.031496,0.055118,-0.03937,-0.007874,-0.19685,0.07874,-0.031496,-0.133858,0.102362,0.055118,0.055118,0.03937,0.007874,-0.062992,0.023622,0.,0.,-0.015748,-0.015748,-0.031496,0.015748,-0.023622,-0.007874,0.,-0.015748,-0.031496,-0.007874,0.015748,-0.007874,0.015748,-0.015748,0.,0.,-0.023622,-0.015748,0.007874,0.,-0.015748,0.,0.,-0.007874,-0.007874,0.,0.007874,0.,-0.007874,-0.031496,-0.03937,-0.015748,0.023622,-0.015748,-0.007874,-0.031496,0.,-0.007874,-0.007874,-0.015748,-0.007874,-0.007874,-0.015748,-0.007874,0.,0.007874,-0.015748,0.,-0.007874,0.015748,0.,-0.015748,0.,-0.015748,-0.007874,-0.023622,0.,-0.007874,0.007874,-0.007874,-0.007874,0.007874,-0.03937,-0.015748,-0.023622,0.,0.,0.007874,-0.007874,-0.023622,0.,-0.023622,-0.007874,0.,0.007874,-0.015748,0.,0.015748,-0.023622,-0.023622,0.031496,0.015748,-0.023622,-0.007874,0.015748,0.,-0.023622,0.007874,0.007874,-0.015748,0.031496,-0.03937,0.015748,0.,-0.03937,0.,-0.015748,-0.055118,0.031496,0.102362,-0.11811,-0.007874,-0.023622,-0.007874,-0.007874,-0.015748,0.015748,-0.023622,-0.007874,0.007874,0.,-0.007874,0.,0.015748,-0.015748,0.007874,-0.015748,-0.007874,-0.007874,-0.031496,0.007874,-0.015748,-0.023622,0.,0.015748,-0.007874,0.,-0.015748,-0.023622,0.,0.,-0.007874,-0.015748,0.,-0.023622,-0.007874,0.,-0.047244,0.007874,0.007874,0.007874,-0.015748,0.007874,-0.023622,0.015748,0.007874,-0.015748,-0.015748,-0.031496,0.,0.,0.015748,-0.007874,0.,-0.023622,-0.007874,-0.007874,-0.023622,0.,-0.015748,-0.007874,0.007874,-0.015748,-0.007874,0.,-0.007874,0.,0.015748,-0.015748,0.,-0.007874,-0.023622,-0.031496,-0.015748,0.,0.015748,0.,-0.007874,0.,-0.015748,-0.015748,-0.015748,0.,0.007874,-0.015748,0.015748,-0.015748,0.,0.007874,-0.007874,0.,-0.007874,-0.007874,-0.015748,-0.007874,-0.007874,-0.015748,-0.015748,0.007874,0.,-0.015748,-0.007874,-0.007874,-0.015748,-0.007874,0.,-0.007874,-0.023622,-0.007874,-0.023622,0.007874,0.,0.015748,-0.015748,0.,0.007874,-0.007874,0.,0.007874,-0.023622,0.023622,-0.007874,-0.031496,0.023622,-0.031496,0.007874,-0.015748,-0.007874,-0.015748,0.007874,-0.015748,-0.007874,-0.007874,0.,-0.007874,-0.015748,-0.007874,-0.031496,-0.007874,-0.007874,0.007874,0.007874,0.015748,0.,0.,0.015748,-0.007874,-0.015748,-0.007874,0.007874,-0.007874,0.,-0.007874,-0.015748,-0.007874,0.007874,-0.023622,-0.007874,-0.007874,0.,0.015748,-0.023622,-0.015748,0.,-0.007874,-0.023622,-0.007874,-0.031496,-0.015748,0.,0.007874,0.,-0.015748,-0.023622,-0.023622,0.007874,0.,0.,0.007874,-0.007874,-0.007874,-0.015748,-0.03937,-0.023622,0.,-0.015748,0.,-0.015748,0.007874,-0.007874,-0.023622,-0.007874,0.,0.015748,0.015748,-0.007874,0.007874,-0.007874,0.015748,0.007874,-0.015748,0.007874,-0.007874,-0.023622,0.,-0.015748,0.,-0.015748,0.,0.015748,0.,0.007874,-0.007874,-0.023622,0.007874,-0.007874,-0.023622,-0.007874,-0.007874,-0.015748,0.,-0.015748,-0.031496,0.023622,-0.031496,-0.007874,0.,-0.023622,0.,0.015748,-0.015748,-0.007874,0.,-0.007874,-0.015748,0.007874,0.015748,-0.007874,-0.007874,0.,-0.015748,-0.015748,0.007874,0.007874,-0.007874,-0.015748,-0.007874,0.,-0.007874,-0.007874,0.,-0.007874,-0.015748,-0.007874,0.,-0.023622,0.,0.,0.,-0.007874,-0.015748,0.007874,-0.015748,-0.007874,-0.007874,0.,-0.015748,-0.015748,0.,-0.015748,0.007874,0.,-0.015748,-0.015748,-0.007874,-0.007874,0.,-0.023622,-0.015748,0.,0.
