repovizz,framerate=200
0.007874,-0.015748,-0.023622,0.015748,0.,-0.023622,-0.007874,0.,0.,-0.007874,-0.023622,-0.015748,-0.023622,-0.007874,-0.03937,0.015748,0.,-0.015748,-0.007874,0.015748,-0.007874,0.015748,-0.03937,-0.015748,-0.007874,0.023622,-0.007874,0.,-0.023622,-0.015748,-0.031496,-0.023622,0.,0.,0.047244,-0.031496,-0.007874,-0.015748,0.015748,-0.015748,-0.015748,0.,-0.007874,0.,0.,0.,0.,-0.007874,-0.007874,0.,0.,-0.015748,-0.015748,-0.007874,0.,0.007874,-0.015748,-0.031496,-0.007874,0.015748,-0.007874,-0.03937,-0.007874,0.,0.,0.007874,0.,-0.007874,0.015748,-0.015748,-0.007874,-0.007874,-0.031496,0.007874,-0.007874,-0.007874,-0.023622,-0.007874,0.,-0.031496,-0.023622,0.015748,-0.031496,0.007874,-0.023622,0.007874,0.023622,-0.015748,0.,-0.007874,-0.023622,-0.007874,0.086614,-0.015748,-0.031496,-0.03937,-0.007874,-0.007874,-0.015748,-0.023622,-0.007874,0.007874,-0.015748,-0.055118,0.023622,-0.023622,0.,0.086614,-0.03937,0.023622,0.023622,-0.031496,-0.055118,-0.03937,0.007874,-0.023622,-0.007874,0.015748,0.015748,-0.03937,0.007874,0.047244,-0.031496,0.,-0.007874,0.031496,0.,-0.007874,-0.007874,-0.007874,-0.007874,-0.047244,-0.110236,0.023622,0.023622,0.102362,0.015748,-0.047244,-0.023622,-0.023622,-0.015748,0.03937,-0.031496,-0.023622,-0.015748,0.055118,-0.047244,0.03937,-0.015748,-0.055118,0.031496,-0.023622,-0.062992,-0.070866,0.015748,0.,0.188976,-0.133858,-0.047244,0.,-0.023622,0.,0.007874,-0.015748,-0.015748,-0.015748,-0.015748,-0.015748,-0.015748,-0.007874,0.031496,-0.015748,-0.015748,0.,0.,-0.031496,-0.023622,0.023622,0.015748,-0.023622,0.031496,-0.007874,-0.03937,-0.023622,-0.031496,0.023622,0.,-0.023622,-0.023622,-0.015748,-0.03937,-0.023622,0.070866,-0.055118,0.,0.070866,-0.015748,0.015748,-0.015748,-0.031496,0.,-0.007874,-0.015748,-0.015748,0.007874,-0.015748,-0.03937,0.023622,0.007874,-0.031496,0.055118,-0.015748,-0.031496,0.023622,-0.047244,-0.07874,0.015748,-0.015748,0.015748,0.110236,-0.070866,-0.023622,0.,0.015748,-0.062992,-0.03937,0.,0.007874,-0.031496,0.023622,-0.031496,0.062992,0.07874,-0.102362,-0.015748,0.,0.023622,0.023622,-0.047244,-0.11811,0.102362,0.055118,-0.03937,0.,-0.15748,0.023622,0.031496,0.015748,0.,0.023622,-0.023622,0.023622,0.03937,0.031496,-0.086614,-0.031496,0.015748,-0.070866,0.204724,-0.102362,-0.062992,0.133858,-0.204724,0.062992,-0.03937,-0.047244,0.19685,-0.086614,0.062992,-0.062992,-0.086614,-0.007874,-0.094488,0.070866,-0.03937,0.204724,-0.015748,-0.094488,0.015748,-0.031496,0.007874,0.023622,-0.149606,0.070866,0.03937,-0.047244,-0.03937,-0.188976,0.07874,-0.015748,0.165354,-0.03937,-0.023622,-0.015748,0.,-0.015748,0.,0.03937,-0.055118,0.007874,-0.03937,0.,0.055118,-0.023622,-0.149606,0.031496,0.110236,0.094488,0.031496,-0.055118,0.047244,-0.023622,0.023622,-0.070866,0.102362,-0.015748,-0.062992,-0.07874,0.007874,0.007874,-0.094488,-0.007874,0.015748,-0.031496,0.015748,-0.031496,-0.031496,-0.062992,-0.007874,-0.141732,-0.086614,0.070866,-0.07874,0.031496,-0.062992,-0.125984,0.188976,0.283465,-0.220472,-0.031496,0.031496,-0.062992,-0.047244,-0.031496,-0.031496,0.007874,-0.023622,-0.070866,-0.031496,0.007874,-0.03937,0.283465,0.007874,-0.125984,-0.007874,0.,-0.031496,0.,-0.015748,-0.031496,0.062992,-0.03937,0.,-0.015748,0.023622,-0.07874,0.102362,0.015748,0.,0.070866,-0.055118,-0.023622,-0.094488,0.007874,-0.023622,-0.047244,0.023622,-0.07874,0.125984,0.,-0.181102,0.070866,-0.007874,-0.023622,-0.007874,-0.015748,-0.047244,0.03937,-0.023622,0.062992,-0.031496,0.03937,0.110236,-0.047244,-0.015748,-0.031496,-0.031496,-0.031496,0.031496,-0.031496,0.031496,-0.015748,0.007874,-0.03937,-0.055118,0.070866,-0.03937,-0.03937,-0.015748,-0.023622,0.070866,-0.062992,-0.094488,0.007874,0.07874,0.031496,0.047244,-0.007874,-0.07874,-0.07874,0.031496,0.007874,-0.07874,-0.007874,0.102362,-0.03937,-0.007874,0.055118,-0.031496,-0.047244,-0.015748,0.086614,-0.055118,-0.03937,0.,0.023622,0.047244,-0.07874,-0.023622,-0.023622,0.055118,-0.133858,-0.086614,0.133858,0.,0.007874,0.125984,-0.149606,-0.062992,0.,-0.062992,-0.015748,0.047244,-0.086614,-0.133858,-0.133858,0.03937,0.07874,0.047244,0.15748,-0.07874,-0.125984,0.141732,-0.110236,0.133858,0.03937,-0.110236,-0.102362,0.023622,0.275591,-0.094488,0.07874,-0.070866,-0.007874,0.070866,-0.007874,0.031496,-0.188976,0.07874,-0.015748,0.015748,0.07874,-0.023622,0.007874,0.007874,0.,-0.141732,0.07874,-0.03937,-0.03937,0.11811,-0.11811,-0.015748,0.015748,0.094488,-0.110236,-0.023622,0.007874,-0.070866,-0.007874,0.094488,-0.125984,-0.015748,-0.047244,-0.110236,0.031496,-0.086614,0.023622,-0.086614,0.23622,-0.094488,0.023622,0.03937,-0.023622,0.031496,0.031496,-0.03937,-0.102362,0.023622,-0.023622,0.031496,0.031496,-0.094488,0.094488,-0.070866,-0.031496,-0.023622,0.055118,-0.015748,0.047244,-0.062992,-0.023622,0.,-0.007874,-0.094488,-0.055118,0.047244,-0.047244,0.110236,-0.062992,0.03937,0.086614,0.062992,-0.149606,0.015748,-0.007874,-0.062992,0.015748,0.047244,-0.047244,-0.102362,-0.086614,0.015748,-0.047244,0.149606,0.181102,-0.409449,0.031496,0.110236,0.370079,-0.070866,-0.11811,0.047244,0.023622,0.047244,-0.086614,-0.283465,0.173228,0.023622,-0.03937,-0.275591,-0.03937,-0.062992,0.181102,0.338583,-0.102362,-0.094488,0.03937,0.15748,-0.165354,0.094488,-0.094488,-0.165354,0.,-0.03937,-0.110236,0.377953,-0.267717,-0.007874,0.03937,-0.173228,0.19685,0.070866,0.023622,-0.11811,-0.03937,0.031496,0.015748,0.031496,-0.07874,-0.110236,-0.062992,0.031496,-0.007874,0.110236,-0.031496,-0.03937,-0.102362,0.015748,0.086614,-0.102362,0.070866,-0.055118,-0.03937,0.212598,-0.165354,-0.094488,0.267717,-0.007874,0.007874,0.07874,-0.228346,0.086614,0.070866,-0.015748,-0.047244,-0.007874,-0.023622,-0.031496,-0.086614,0.015748,-0.07874,0.070866,-0.15748,0.086614,0.102362,-0.07874,0.062992,-0.070866,-0.062992,-0.023622,-0.047244,0.031496,-0.007874,-0.07874,-0.19685,0.055118,-0.086614,-0.070866,0.220472,-0.094488,0.102362,-0.023622,-0.15748,-0.094488,-0.015748,0.07874,0.448819,-0.212598,-0.07874,0.007874,0.023622,0.,-0.031496,-0.094488,0.015748,0.03937,-0.015748,0.07874,-0.094488,0.031496,-0.062992,0.015748,0.094488,0.031496,-0.007874,-0.07874,-0.023622,0.031496,0.062992,-0.110236,-0.181102,-0.055118,-0.023622,0.322835,-0.102362,-0.023622,-0.055118,-0.023622,0.244094,0.055118,-0.086614,0.015748,0.086614,0.007874,0.102362,-0.11811,-0.338583,0.086614,0.141732,-0.031496,0.07874,-0.267717,0.023622,0.086614,0.055118,-0.094488,-0.031496,-0.047244,0.062992,-0.031496,-0.07874,-0.031496,-0.094488,0.338583,0.031496,-0.173228,0.007874,0.07874,-0.015748,0.03937,0.007874,-0.047244,-0.047244,0.047244,-0.133858,-0.023622,0.07874,0.007874,0.11811,-0.133858,-0.094488,0.023622,0.015748,-0.070866,0.007874,0.,-0.165354,0.015748,0.015748,0.047244,0.,-0.133858,-0.047244,0.055118,0.102362,-0.11811,-0.007874,-0.015748,-0.015748,0.007874,0.047244,-0.070866,0.,0.015748,-0.015748,-0.047244,-0.007874,-0.031496,0.007874,-0.055118,0.047244,0.110236,-0.031496,-0.031496,-0.015748,0.031496,0.,-0.015748,0.03937,-0.07874,-0.007874,-0.055118,0.031496,-0.094488,0.055118,-0.125984,0.047244,-0.007874,-0.03937,0.275591,-0.173228,0.062992,-0.023622,-0.031496,0.007874,-0.031496,-0.007874,-0.007874,-0.007874,-0.055118,0.015748,-0.007874,0.047244,0.,-0.047244,0.007874,-0.062992,0.023622,-0.070866,0.062992,-0.015748,0.007874,-0.023622,0.070866,-0.015748,-0.015748,0.031496,-0.07874,0.007874,-0.015748,0.,-0.031496,0.023622,-0.031496,-0.007874,-0.07874,0.007874,0.03937,-0.047244,0.03937,-0.007874,-0.015748,-0.03937,0.007874,-0.007874,0.023622,0.031496,-0.055118,-0.031496,0.023622,-0.062992,0.,0.047244,-0.062992,0.110236,-0.03937,-0.11811,0.023622,0.023622,-0.023622,-0.015748,-0.031496,-0.023622,0.125984,0.031496,-0.062992,-0.055118,-0.023622,-0.047244,0.102362,-0.070866,0.047244,0.015748,-0.047244,-0.070866,-0.047244,-0.047244,-0.055118,-0.086614,0.055118,0.086614,0.102362,-0.015748,-0.070866,0.03937,-0.047244,-0.086614,0.007874,-0.062992,-0.007874,0.031496,0.07874,0.,0.007874,-0.11811,-0.204724,0.03937,0.007874,0.338583,-0.03937,-0.173228,-0.015748,0.015748,0.07874,0.023622,-0.023622,-0.015748,0.110236,-0.086614,0.055118,-0.03937,0.03937,-0.094488,-0.015748,-0.03937,-0.062992,0.149606,-0.11811,0.11811,-0.070866,-0.133858,0.055118,0.023622,-0.023622,-0.070866,-0.047244,-0.047244,0.023622,0.03937,0.070866,-0.023622,0.023622,-0.086614,0.070866,0.047244,-0.031496,0.047244,-0.031496,0.023622,0.,-0.125984,0.03937,-0.031496,0.03937,0.251969,-0.070866,0.141732,-0.173228,0.007874,-0.047244,-0.110236,-0.062992,0.062992,0.062992,-0.125984,-0.007874,-0.055118,-0.094488,-0.023622,0.070866,0.015748,-0.070866,-0.007874,-0.031496,-0.031496,-0.07874,0.110236,-0.110236,0.062992,-0.023622,-0.055118,0.086614,-0.055118,0.094488,-0.07874,0.023622,-0.023622,-0.023622,0.047244,-0.102362,-0.055118,0.023622,-0.007874,-0.023622,0.055118,-0.007874,-0.007874,-0.023622,0.031496,-0.03937,0.023622,0.03937,-0.07874,0.023622,-0.031496,-0.015748,0.031496,-0.070866,-0.070866,-0.015748,-0.007874,-0.047244,0.03937,0.03937,-0.03937,0.094488,-0.03937,-0.047244,0.015748,0.055118,-0.07874,-0.062992,-0.07874,0.062992,0.031496,0.149606,-0.149606,-0.023622,0.,0.031496,0.133858,-0.094488,-0.07874,0.007874,0.,-0.07874,0.03937,0.055118,-0.007874,-0.031496,-0.062992,0.055118,-0.086614,-0.102362,-0.07874,-0.062992,0.055118,0.07874,0.188976,0.015748,0.094488,-0.188976,0.055118,0.055118,-0.07874,-0.007874,-0.015748,-0.007874,-0.007874,0.055118,0.110236,0.007874,-0.062992,-0.07874,-0.141732,0.,0.094488,0.070866,-0.023622,-0.188976,0.110236,-0.047244,-0.007874,0.047244,0.031496,-0.149606,0.062992,-0.110236,0.133858,0.110236,-0.267717,-0.023622,-0.086614,0.086614,0.188976,-0.062992,-0.023622,-0.125984,-0.023622,-0.023622,-0.007874,-0.19685,-0.031496,0.125984,-0.07874,0.283465,-0.149606,-0.307087,-0.031496,0.188976,0.11811,0.220472,-0.110236,0.,-0.015748,0.03937,-0.086614,0.047244,0.031496,-0.03937,-0.102362,0.062992,-0.173228,0.11811,-0.055118,-0.062992,0.086614,-0.031496,0.031496,0.,0.007874,-0.070866,0.07874,-0.03937,0.062992,-0.188976,-0.11811,0.007874,0.133858,-0.007874,0.19685,-0.259843,0.03937,-0.03937,0.007874,-0.047244,-0.007874,0.141732,-0.062992,0.102362,-0.15748,0.094488,-0.007874,-0.047244,-0.023622,0.173228,-0.125984,-0.149606,-0.023622,0.023622,-0.102362,0.299213,0.007874,0.015748,-0.15748,0.338583,-0.173228,-0.023622,-0.055118,0.047244,-0.055118,-0.023622,-0.149606,0.094488,0.031496,0.015748,0.015748,-0.377953,-0.062992,-0.15748,0.322835,0.086614,0.055118,-0.141732,-0.19685,0.125984,0.070866,-0.094488,0.102362,-0.031496,-0.133858,0.015748,0.03937,-0.267717,-0.047244,0.070866,-0.070866,0.070866,-0.204724,0.070866,0.401575,-0.023622,-0.259843,-0.047244,-0.110236,0.094488,-0.007874,0.007874,0.023622,-0.03937,0.393701,-0.283465,0.11811,-0.102362,0.228346,-0.110236,0.094488,-0.23622,-0.070866,0.007874,0.015748,0.133858,0.023622,-0.094488,0.015748,0.149606,-0.204724,-0.133858,0.023622,-0.125984,0.023622,0.,-0.055118,0.165354,-0.11811,-0.15748,0.047244,0.102362,-0.07874,0.204724,-0.125984,-0.173228,0.055118,0.015748,-0.03937,-0.228346,0.062992,0.220472,-0.110236,-0.062992,0.165354,0.181102,-0.070866,-0.181102,0.102362,-0.110236,0.102362,-0.03937,0.047244,-0.102362,0.,-0.11811,0.03937,0.031496,0.047244,-0.007874,-0.07874,-0.259843,0.,0.188976,0.070866,0.133858,-0.346457,0.,-0.102362,0.070866,0.070866,0.094488,-0.165354,-0.070866,0.07874,0.03937,-0.15748,-0.007874,0.015748,-0.031496,0.181102,0.102362,0.007874,0.023622,0.023622,-0.228346,-0.007874,-0.062992,0.070866,0.149606,-0.188976,0.07874,-0.023622,0.055118,-0.015748,0.299213,-0.173228,0.015748,-0.188976,-0.283465,0.055118,0.070866,0.19685,0.03937,-0.165354,-0.062992,0.086614,0.275591,-0.346457,0.212598,-0.007874,-0.07874,0.23622,0.03937,-0.102362,0.220472,-0.165354,-0.031496,-0.110236,0.015748,-0.133858,-0.204724,0.031496,0.23622,0.488189,-0.19685,-0.275591,-0.204724,-0.023622,0.15748,-0.015748,-0.070866,-0.007874,-0.03937,-0.023622,-0.102362,0.173228,0.07874,-0.062992,-0.023622,-0.070866,0.023622,0.346457,-0.15748,-0.133858,-0.023622,0.023622,-0.031496,-0.070866,0.062992,0.007874,-0.007874,0.,0.031496,-0.07874,-0.015748,0.,-0.094488,0.055118,0.007874,0.007874,-0.070866,-0.015748,-0.023622,-0.031496,-0.007874,-0.031496,-0.031496,0.023622,0.047244,-0.102362,0.055118,0.015748,-0.062992,0.102362,-0.07874,0.03937,-0.031496,-0.015748,-0.023622,-0.062992,-0.015748,0.015748,0.047244,0.007874,0.007874,-0.07874,0.03937,-0.047244,-0.062992,0.07874,-0.070866,0.031496,-0.015748,-0.007874,0.,-0.015748,0.023622,0.015748,0.015748,-0.070866,0.,0.,-0.007874,-0.031496,-0.023622,-0.007874,0.007874,-0.023622,0.,-0.007874,0.062992,-0.070866,0.031496,-0.007874,-0.007874,-0.031496,0.03937,-0.047244,0.007874,0.,-0.047244,-0.023622,-0.023622,-0.007874,-0.007874,0.047244,0.007874,0.094488,-0.094488,0.,0.031496,0.007874,0.,-0.062992,-0.031496,0.055118,-0.023622,0.023622,-0.023622,-0.047244,0.007874,-0.007874,0.007874,0.007874,0.007874,-0.023622,0.,-0.070866,0.,0.023622,-0.031496,-0.007874,-0.015748,-0.03937,0.023622,-0.047244,-0.015748,-0.03937,-0.007874,-0.015748,0.,0.03937,0.031496,0.023622,-0.03937,-0.015748,0.023622,0.007874,-0.031496,-0.015748,-0.031496,0.,0.007874,0.015748,-0.031496,0.031496,-0.031496,-0.023622,0.007874,-0.015748,0.015748,-0.031496,0.062992,0.,-0.133858,0.062992,0.070866,0.,-0.062992,0.015748,0.062992,-0.110236,0.007874,-0.023622,-0.047244,0.023622,-0.062992,-0.023622,-0.047244,0.047244,-0.047244,-0.070866,-0.094488,-0.070866,0.425197,0.015748,-0.055118,-0.031496,-0.007874,-0.070866,0.03937,-0.055118,0.062992,-0.055118,0.,-0.047244,-0.031496,-0.023622,-0.055118,0.19685,-0.125984,0.07874,-0.07874,0.031496,-0.110236,0.,-0.031496,-0.055118,-0.055118,0.047244,0.03937,0.015748,-0.03937,0.,0.031496,-0.007874,-0.015748,-0.023622,0.,0.015748,-0.015748,-0.094488,-0.047244,0.,0.173228,-0.007874,-0.094488,-0.03937,-0.047244,0.070866,0.141732,-0.070866,-0.094488,0.055118,-0.031496,0.,0.023622,0.047244,-0.031496,0.015748,0.007874,-0.03937,0.03937,-0.070866,-0.07874,-0.07874,-0.03937,0.094488,0.188976,0.173228,-0.141732,0.141732,-0.015748,-0.086614,-0.031496,-0.03937,0.133858,-0.007874,0.094488,-0.133858,-0.133858,0.015748,-0.086614,0.,-0.07874,0.,0.,-0.007874,-0.086614,0.03937,0.023622,0.07874,-0.031496,-0.102362,0.102362,-0.007874,0.015748,0.062992,-0.070866,0.007874,0.,-0.062992,-0.03937,0.,0.007874,-0.015748,-0.031496,-0.031496,0.007874,0.023622,0.062992,-0.11811,-0.062992,0.086614,-0.023622,-0.015748,-0.023622,0.007874,0.031496,-0.023622,-0.023622,0.007874,-0.03937,0.03937,0.015748,-0.055118,-0.031496,-0.094488,0.,-0.03937,-0.031496,0.007874,0.110236,-0.007874,-0.047244,0.,0.023622,-0.015748,0.023622,0.015748,-0.062992,-0.055118,0.015748,-0.03937,-0.062992,-0.007874,0.007874,0.125984,-0.07874,-0.070866,-0.015748,0.03937,0.125984,0.047244,0.086614,-0.133858,0.,-0.047244,0.03937,0.110236,-0.125984,0.,0.015748,-0.023622,0.07874,-0.055118,0.015748,-0.055118,0.007874,-0.03937,0.03937,-0.094488,-0.023622,-0.133858,0.055118,0.07874,0.062992,0.070866,-0.204724,-0.047244,-0.149606,0.023622,0.070866,0.031496,-0.03937,0.149606,-0.102362,0.03937,0.086614,-0.173228,0.102362,-0.149606,0.228346,0.110236,-0.251969,-0.133858,0.015748,-0.149606,0.19685,-0.188976,0.023622,0.047244,0.03937,0.220472,-0.19685,-0.023622,-0.070866,0.03937,-0.094488,-0.07874,0.055118,0.086614,-0.07874,0.03937,0.007874,-0.047244,0.007874,-0.141732,-0.062992,-0.023622,0.023622,0.251969,-0.125984,0.055118,0.062992,0.,-0.11811,-0.070866,-0.031496,0.125984,0.031496,0.015748,-0.031496,0.110236,0.015748,0.007874,0.110236,-0.125984,-0.007874,-0.07874,-0.023622,0.047244,-0.141732,0.062992,-0.062992,-0.07874,0.047244,0.086614,-0.062992,-0.070866,-0.047244,-0.047244,-0.03937,-0.015748,0.007874,0.125984,0.133858,-0.11811,-0.11811,0.015748,-0.102362,-0.047244,-0.047244,0.125984,0.086614,-0.125984,-0.062992,0.03937,0.086614,-0.070866,0.322835,-0.149606,-0.055118,-0.023622,0.03937,0.015748,-0.102362,-0.07874,-0.047244,0.07874,0.031496,0.03937,-0.125984,-0.07874,-0.141732,0.015748,0.062992,0.,0.,-0.110236,-0.031496,-0.149606,-0.165354,0.062992,0.125984,-0.141732,0.133858,-0.582677,0.377953,-0.094488,0.299213,0.204724,0.015748,-0.181102,-0.149606,0.795276,-0.433071,0.102362,-0.062992,-0.007874,-0.15748,0.141732,-0.173228,0.11811,-0.110236,-0.007874,-0.094488,-0.007874,0.102362,-0.141732,0.125984,-0.070866,0.055118,-0.07874,0.007874,0.007874,-0.007874,0.031496,0.031496,-0.023622,0.023622,-0.110236,-0.173228,0.086614,-0.015748,0.11811,0.047244,-0.291339,0.110236,-0.07874,0.11811,0.015748,-0.007874,0.031496,-0.015748,-0.031496,0.023622,0.015748,0.047244,0.015748,-0.055118,0.125984,-0.070866,-0.149606,-0.031496,0.070866,-0.062992,0.07874,0.015748,-0.070866,0.086614,-0.141732,-0.047244,0.015748,0.023622,-0.07874,-0.047244,0.102362,-0.031496,-0.062992,-0.007874,-0.03937,0.07874,-0.055118,0.165354,-0.086614,0.047244,-0.007874,0.070866,0.015748,0.125984,-0.086614,-0.03937,-0.07874,0.070866,0.,0.070866,-0.133858,-0.062992,0.133858,-0.031496,-0.015748,0.149606,-0.023622,-0.133858,-0.322835,-0.102362,-0.11811,-0.07874,0.220472,-0.141732,0.771654,-0.086614,-0.07874,0.173228,-0.456693,0.267717,-0.259843,0.03937,-0.173228,0.015748,0.228346,-0.511811,0.149606,-0.125984,0.314961,-0.062992,0.188976,-0.188976,0.015748,-0.07874,-0.188976,0.047244,-0.007874,0.173228,-0.007874,-0.07874,-0.062992,0.015748,0.015748,0.,0.007874,-0.03937,-0.023622,0.,0.015748,0.,-0.015748,-0.023622,0.007874,-0.007874,-0.015748,-0.015748,-0.007874,-0.03937,-0.031496,0.047244,-0.047244,0.031496,0.047244,-0.047244,0.031496,0.007874,-0.015748,0.,-0.007874,-0.03937,0.023622,0.,-0.007874,0.031496,-0.015748,-0.062992,0.031496,-0.047244,-0.023622,0.,-0.03937,-0.023622,0.,-0.015748,-0.03937,0.007874,0.015748,0.062992,-0.03937,-0.03937,-0.031496,0.023622,0.047244,-0.023622,-0.047244,0.007874,-0.055118,-0.007874,-0.031496,-0.03937,-0.007874,0.007874,0.062992,-0.031496,0.,0.007874,-0.031496,0.015748,0.07874,-0.070866,-0.023622,0.015748,0.031496,-0.047244,-0.031496,0.015748,-0.03937,0.133858,-0.062992,-0.007874,-0.086614,-0.047244,0.,0.03937,-0.015748,-0.007874,0.047244,-0.031496,-0.047244,-0.03937,0.007874,0.055118,-0.070866,-0.023622,-0.015748,-0.007874,0.03937,-0.015748,-0.055118,0.055118,-0.102362,0.015748,0.11811,-0.055118,-0.015748,-0.031496,-0.047244,-0.047244,0.15748,0.023622,0.102362,-0.070866,-0.165354,0.007874,0.055118,-0.03937,0.031496,-0.094488,0.062992,0.094488,-0.062992,-0.173228,-0.031496,0.062992,0.094488,0.110236,-0.141732,0.023622,0.015748,-0.047244,-0.007874,-0.07874,0.11811,0.070866,-0.125984,-0.062992,-0.07874,-0.086614,-0.031496,0.03937,0.102362,-0.047244,0.047244,-0.094488,0.086614,0.015748,-0.062992,0.,-0.055118,-0.031496,0.11811,-0.110236,0.07874,0.086614,-0.031496,-0.086614,-0.07874,-0.015748,0.031496,-0.015748,0.007874,0.031496,-0.047244,0.149606,-0.15748,0.094488,-0.125984,0.07874,-0.07874,0.03937,0.070866,-0.047244,0.062992,0.015748,-0.031496,-0.047244,0.015748,-0.03937,0.102362,-0.047244,0.055118,0.086614,-0.110236,-0.007874,0.047244,-0.070866,-0.015748,-0.023622,-0.007874,0.062992,-0.070866,-0.055118,-0.149606,0.07874,-0.047244,0.015748,0.,0.03937,-0.110236,0.031496,0.031496,0.,-0.062992,-0.023622,-0.102362,0.023622,0.23622,-0.094488,0.149606,-0.173228,0.031496,0.015748,-0.015748,0.007874,-0.102362,-0.094488,0.165354,-0.03937,0.031496,0.070866,-0.212598,0.094488,-0.330709,-0.03937,0.110236,-0.007874,0.094488,-0.102362,-0.220472,0.141732,0.03937,0.055118,0.181102,-0.125984,0.133858,0.173228,-0.047244,-0.212598,0.062992,-0.102362,-0.015748,0.133858,0.015748,-0.11811,0.055118,-0.07874,-0.023622,0.055118,-0.086614,0.015748,0.047244,0.047244,-0.086614,-0.070866,0.133858,-0.102362,-0.055118,0.070866,-0.015748,-0.070866,0.007874,0.031496,-0.055118,0.007874,-0.047244,-0.062992,-0.094488,-0.031496,0.03937,0.055118,-0.07874,0.11811,0.125984,-0.125984,-0.055118,-0.125984,0.007874,0.055118,0.070866,0.094488,0.,-0.086614,-0.007874,0.031496,0.062992,-0.055118,-0.047244,-0.094488,-0.007874,0.133858,0.03937,-0.149606,-0.11811,-0.015748,0.165354,0.19685,-0.259843,-0.03937,0.,0.062992,0.15748,-0.07874,-0.023622,0.007874,-0.023622,-0.244094,0.015748,0.11811,0.141732,-0.267717,-0.094488,-0.023622,-0.07874,0.251969,-0.181102,0.125984,0.007874,-0.007874,0.,-0.007874,0.03937,0.015748,-0.133858,0.062992,0.,0.330709,-0.141732,-0.086614,0.062992,-0.086614,-0.047244,0.07874,-0.055118,0.062992,0.007874,-0.047244,0.007874,-0.015748,-0.070866,-0.055118,-0.023622,-0.03937,0.362205,-0.133858,-0.007874,-0.125984,0.188976,-0.070866,-0.094488,-0.023622,-0.133858,-0.11811,-0.070866,0.094488,-0.11811,0.023622,0.03937,-0.204724,0.102362,0.062992,0.055118,0.015748,0.212598,-0.220472,0.,-0.133858,-0.070866,-0.055118,0.062992,0.062992,0.023622,0.086614,-0.11811,-0.086614,-0.007874,-0.023622,-0.023622,-0.007874,-0.055118,0.07874,-0.133858,0.062992,0.07874,0.,-0.047244,0.181102,-0.165354,-0.007874,0.023622,-0.07874,0.102362,-0.086614,0.149606,-0.047244,0.070866,-0.070866,0.086614,-0.086614,-0.102362,-0.102362,0.141732,0.141732,-0.094488,-0.165354,-0.125984,0.062992,0.086614,0.181102,-0.086614,0.007874,-0.062992,-0.03937,-0.047244,0.031496,0.,-0.007874,-0.133858,-0.086614,-0.15748,0.220472,0.047244,-0.062992,0.031496,-0.03937,0.125984,-0.047244,-0.007874,-0.070866,-0.007874,0.,-0.03937,-0.023622,-0.047244,-0.086614,0.149606,0.070866,-0.023622,0.165354,-0.173228,0.023622,-0.094488,-0.023622,-0.110236,0.094488,-0.102362,0.03937,-0.141732,0.275591,0.007874,0.094488,-0.173228,0.165354,-0.188976,0.047244,0.015748,0.07874,-0.070866,-0.023622,-0.220472,0.070866,0.062992,-0.149606,0.338583,-0.448819,0.283465,0.11811,-0.023622,-0.102362,-0.015748,0.055118,0.094488,0.031496,-0.173228,-0.094488,0.03937,-0.062992,0.125984,-0.15748,-0.047244,0.19685,-0.03937,-0.094488,0.055118,-0.133858,0.133858,-0.070866,0.141732,-0.181102,0.062992,-0.094488,-0.07874,0.047244,-0.023622,0.346457,-0.165354,0.055118,-0.023622,0.023622,0.086614,0.007874,-0.015748,0.15748,-0.047244,-0.03937,-0.110236,-0.165354,0.062992,-0.023622,0.015748,-0.023622,0.023622,-0.07874,-0.03937,-0.015748,-0.023622,-0.047244,0.094488,-0.141732,0.,-0.023622,0.102362,-0.11811,0.07874,-0.141732,-0.173228,0.007874,-0.110236,-0.110236,0.094488,0.086614,-0.07874,0.149606,0.,-0.055118,0.15748,-0.275591,-0.03937,0.094488,-0.07874,-0.228346,0.188976,-0.055118,-0.141732,0.464567,-0.188976,0.19685,-0.086614,-0.181102,0.055118,0.007874,-0.102362,0.23622,0.251969,-0.188976,0.19685,-0.047244,0.023622,-0.11811,-0.023622,-0.15748,-0.023622,-0.15748,-0.070866,0.338583,-0.314961,0.015748,0.125984,0.086614,-0.062992,-0.110236,-0.031496,-0.070866,-0.125984,-0.125984,0.251969,-0.299213,-0.062992,0.362205,0.181102,0.110236,-0.275591,-0.070866,-0.212598,0.03937,0.03937,0.007874,-0.047244,0.094488,-0.102362,-0.165354,0.188976,-0.133858,0.267717,0.322835,-0.291339,0.023622,-0.047244,-0.062992,-0.015748,0.007874,-0.031496,-0.070866,0.03937,-0.047244,-0.07874,0.062992,-0.062992,-0.141732,0.330709,-0.173228,0.125984,0.055118,0.062992,-0.094488,-0.015748,-0.070866,-0.031496,0.102362,-0.03937,-0.047244,0.031496,-0.055118,-0.015748,0.15748,-0.125984,0.102362,-0.047244,0.047244,-0.015748,-0.055118,0.023622,0.023622,-0.070866,0.047244,-0.03937,-0.023622,-0.015748,0.015748,-0.047244,0.031496,-0.047244,-0.023622,0.,-0.007874,0.023622,-0.007874,0.,-0.086614,0.055118,0.023622,-0.007874,0.015748,-0.047244,-0.015748,0.031496,-0.031496,-0.015748,0.007874,-0.023622,0.007874,-0.03937,0.007874,0.007874,-0.03937,0.015748,-0.047244,-0.015748,-0.015748,-0.007874,-0.007874,0.015748,-0.007874,0.007874,0.,-0.047244,0.062992,-0.015748,-0.015748,-0.031496,0.,0.031496,-0.031496,-0.007874,-0.015748,0.,-0.031496,-0.015748,-0.007874,-0.015748,0.007874,-0.023622,-0.007874,0.007874,-0.03937,0.,-0.007874,-0.023622,0.007874,-0.015748,-0.070866,0.055118,0.015748,-0.015748,0.031496,-0.070866,-0.007874,0.086614,-0.047244,-0.023622,0.,-0.047244,-0.031496,0.,0.03937,-0.031496,0.047244,-0.055118,-0.007874,-0.023622,0.,-0.007874,0.007874,0.015748,0.023622,-0.007874,-0.07874,0.03937,-0.03937,0.,-0.03937,0.023622,-0.031496,-0.031496,0.062992,0.,0.015748,0.007874,-0.07874,-0.007874,0.03937,-0.007874,0.047244,-0.094488,0.,-0.007874,0.015748,-0.007874,0.,-0.062992,0.007874,-0.047244,-0.015748,0.070866,-0.047244,-0.015748,-0.007874,0.,-0.015748,-0.031496,-0.015748,0.007874,-0.023622,0.070866,-0.015748,-0.015748,-0.023622,0.015748,-0.023622,-0.023622,-0.007874,-0.015748,0.023622,0.007874,-0.007874,0.007874,0.007874,-0.015748,-0.015748,-0.031496,-0.015748,-0.023622,0.023622,0.007874,-0.007874,0.,-0.007874,0.,-0.023622,-0.015748,0.007874,-0.015748,-0.023622,-0.015748,0.,0.031496,-0.015748,-0.007874,-0.007874,-0.015748,0.015748,-0.007874,-0.007874,0.,-0.03937,0.007874,0.015748,-0.070866,0.03937,-0.03937,0.,0.,-0.023622,-0.031496,0.015748,-0.023622,-0.03937,0.047244,-0.047244,-0.023622,-0.023622,0.047244,-0.031496,-0.007874,-0.031496,0.,0.,-0.023622,-0.015748,0.015748,0.023622,-0.015748,0.,-0.07874,0.,0.,0.015748,-0.031496,-0.031496,0.015748,0.03937,-0.015748,-0.023622,0.,0.023622,-0.015748,0.023622,0.,0.007874,0.023622,-0.023622,-0.015748,-0.007874,0.023622,-0.055118,-0.023622,0.015748,0.,-0.062992,0.023622,-0.007874,0.007874,-0.070866,0.,0.047244,-0.015748,-0.031496,-0.023622,0.023622,-0.023622,0.007874,0.023622,0.03937,0.047244,-0.110236,-0.102362,0.07874,-0.007874,0.19685,0.070866,-0.03937,-0.07874,-0.062992,0.03937,0.094488,0.062992,0.007874,0.047244,-0.070866,0.007874,0.,-0.062992,0.19685,0.086614,-0.173228,-0.307087,0.03937,-0.03937,0.15748,0.015748,0.102362,-0.11811,-0.362205,-0.023622,0.141732,-0.141732,-0.070866,-0.023622,0.031496,0.031496,0.070866,-0.141732,-0.330709,0.212598,-0.259843,0.472441,-0.362205,-0.015748,0.401575,-0.212598,-0.259843,-0.149606,-0.102362,0.251969,-0.047244,0.11811,-0.031496,-0.094488,0.055118,-0.228346,-0.102362,-0.11811,0.031496,0.015748,0.094488,-0.220472,0.220472,-0.204724,0.283465,0.354331,-0.244094,0.007874,-0.031496,-0.007874,-0.031496,-0.023622,0.047244,-0.023622,-0.007874,0.031496,-0.015748,-0.031496,0.023622,-0.141732,-0.141732,0.244094,-0.055118,0.275591,-0.141732,-0.055118,0.,-0.007874,-0.007874,0.047244,-0.047244,-0.031496,-0.149606,0.023622,0.,0.03937,0.291339,-0.283465,0.015748,0.,0.094488,-0.15748,0.015748,0.062992,0.086614,-0.007874,-0.055118,-0.007874,0.,0.007874,-0.047244,-0.07874,0.031496,0.,0.,0.015748,-0.102362,0.07874,0.055118,0.070866,-0.086614,0.03937,-0.023622,-0.055118,0.015748,-0.062992,0.102362,-0.023622,-0.03937,-0.023622,-0.015748,-0.015748,0.,-0.023622,0.007874,0.,-0.070866,0.031496,-0.086614,-0.031496,0.031496,-0.03937,-0.086614,-0.007874,-0.015748,0.055118,0.062992,-0.03937,-0.07874,0.015748,-0.007874,-0.086614,0.125984,-0.086614,0.023622,-0.047244,-0.03937,-0.023622,-0.007874,0.023622,0.007874,-0.031496,0.07874,0.031496,-0.015748,-0.031496,-0.15748,0.094488,-0.007874,0.03937,-0.007874,0.,0.023622,0.,-0.047244,-0.070866,-0.023622,0.023622,0.007874,0.,0.,-0.047244,-0.023622,0.007874,0.007874,0.,0.,0.007874,-0.007874,-0.086614,-0.015748,0.015748,-0.015748,0.,0.007874,0.007874,-0.031496,-0.031496,-0.023622,-0.007874,0.023622,0.031496,0.015748,0.015748,-0.055118,-0.007874,-0.03937,0.007874,-0.007874,-0.094488,0.047244,0.,-0.047244,-0.015748,-0.055118,0.047244,0.03937,-0.023622,-0.015748,-0.062992,0.03937,0.062992,-0.03937,-0.047244,-0.031496,-0.062992,0.015748,0.03937,-0.102362,0.094488,-0.070866,-0.015748,0.070866,-0.023622,0.007874,-0.03937,-0.007874,-0.023622,0.015748,0.015748,-0.03937,-0.031496,0.110236,-0.070866,0.023622,-0.070866,-0.023622,0.007874,-0.023622,-0.015748,-0.047244,-0.031496,0.023622,-0.062992,0.007874,-0.007874,-0.062992,0.03937,0.,0.023622,0.055118,0.023622,-0.070866,0.023622,-0.007874,-0.047244,0.,0.,-0.047244,0.007874,-0.023622,0.03937,0.055118,0.031496,-0.03937,0.055118,-0.062992,0.055118,-0.007874,0.,-0.015748,0.007874,-0.031496,-0.03937,-0.055118,0.047244,0.11811,-0.11811,0.023622,0.015748,-0.133858,-0.015748,0.,0.015748,0.015748,-0.03937,0.007874,-0.062992,0.023622,-0.062992,0.102362,-0.11811,-0.015748,-0.047244,0.023622,-0.031496,-0.015748,0.03937,-0.102362,0.047244,-0.023622,0.125984,-0.023622,-0.023622,-0.03937,-0.023622,-0.015748,-0.031496,0.015748,-0.03937,0.007874,-0.031496,-0.007874,-0.007874,0.007874,0.03937,0.007874,-0.023622,0.062992,-0.070866,0.,-0.023622,0.,-0.031496,-0.070866,-0.031496,-0.023622,0.07874,0.047244,0.062992,-0.055118,0.,-0.031496,0.047244,-0.031496,0.,-0.047244,-0.070866,0.,0.031496,0.023622,-0.03937,-0.047244,-0.07874,-0.015748,0.023622,-0.031496,0.047244,0.062992,-0.047244,-0.055118,0.015748,0.,-0.03937,0.03937,-0.023622,-0.015748,-0.023622,-0.031496,0.015748,0.062992,-0.086614,0.023622,-0.015748,0.023622,-0.015748,-0.03937,0.070866,-0.062992,0.,0.031496,-0.007874,-0.007874,0.03937,-0.03937,0.007874,-0.062992,0.062992,-0.03937,-0.055118,0.007874,0.015748,0.015748,-0.023622,-0.031496,0.031496,0.133858,-0.11811,0.,0.03937,-0.007874,-0.007874,-0.023622,0.,-0.031496,-0.062992,0.031496,-0.023622,-0.023622,-0.015748,-0.015748,0.007874,-0.007874,-0.007874,0.,-0.070866,0.031496,0.03937,-0.007874,-0.062992,-0.031496,0.,0.,-0.007874,-0.023622,0.03937,-0.031496,0.007874,0.,-0.03937,-0.047244,0.,-0.007874,0.062992,-0.070866,0.03937,-0.03937,0.023622,0.086614,-0.102362,0.,0.023622,0.007874,-0.023622,-0.023622,0.,-0.031496,0.023622,-0.031496,-0.007874,-0.047244,0.015748,0.,0.015748,-0.055118,-0.031496,0.,-0.015748,0.,0.047244,0.07874,-0.070866,-0.007874,-0.015748,0.015748,-0.031496,-0.031496,-0.007874,-0.031496,0.031496,0.055118,-0.055118,-0.015748,-0.031496,0.03937,0.062992,-0.062992,-0.03937,-0.023622,0.015748,-0.007874,-0.03937,-0.03937,0.,0.055118,0.023622,0.023622,-0.031496,-0.023622,-0.023622,-0.015748,-0.047244,0.031496,-0.031496,-0.007874,-0.023622,0.031496,-0.03937,0.094488,-0.062992,0.031496,0.,0.015748,-0.031496,-0.07874,0.086614,-0.03937,0.094488,-0.070866,0.,0.015748,0.,-0.03937,-0.007874,-0.062992,0.015748,-0.007874,-0.03937,-0.015748,-0.007874,0.03937,-0.094488,-0.03937,0.031496,0.062992,0.070866,0.,-0.023622,-0.015748,-0.007874,0.007874,-0.023622,-0.07874,-0.007874,-0.062992,-0.031496,0.023622,0.007874,0.094488,-0.070866,-0.031496,0.015748,0.015748,-0.047244,-0.031496,-0.015748,-0.015748,0.055118,-0.015748,0.023622,-0.031496,-0.007874,0.,-0.03937,-0.023622,-0.007874,-0.015748,0.031496,-0.03937,0.007874,0.007874,-0.03937,-0.023622,0.055118,0.031496,-0.031496,-0.031496,-0.015748,0.023622,0.,0.007874,-0.03937,-0.125984,-0.007874,0.007874,-0.007874,0.007874,0.023622,-0.03937,-0.015748,-0.023622,-0.031496,0.047244,0.,0.007874,0.031496,-0.062992,-0.031496,0.031496,-0.015748,-0.023622,-0.070866,-0.007874,0.007874,0.070866,0.,-0.031496,-0.062992,0.007874,0.007874,0.094488,-0.03937,0.047244,0.023622,-0.047244,-0.031496,-0.023622,-0.007874,-0.007874,0.031496,0.,0.062992,-0.023622,0.047244,0.007874,-0.062992,0.031496,-0.070866,-0.031496,0.031496,-0.007874,0.,0.023622,-0.031496,0.031496,-0.055118,-0.03937,-0.031496,-0.07874,0.055118,0.015748,-0.062992,0.015748,-0.070866,0.031496,0.023622,-0.015748,0.070866,-0.031496,0.015748,-0.062992,-0.031496,-0.023622,-0.023622,0.062992,0.031496,-0.047244,0.023622,-0.023622,-0.062992,-0.007874,-0.015748,0.007874,0.,-0.007874,0.,-0.047244,0.,-0.007874,-0.015748,0.007874,0.,0.,0.,-0.015748,0.,0.015748,-0.007874,-0.007874,-0.015748,-0.007874,-0.007874,-0.023622,-0.015748,0.007874,0.015748,0.023622,-0.007874,-0.047244,0.015748,-0.015748,0.015748,-0.03937,-0.007874,-0.023622,-0.023622,-0.007874,0.023622,0.,0.007874,-0.015748,-0.023622,0.,-0.015748,-0.031496,-0.023622,-0.007874,0.,0.03937,-0.03937,-0.007874,-0.007874,-0.015748,0.,-0.015748,-0.015748,-0.007874,-0.007874,-0.007874,-0.015748,-0.023622,-0.015748,0.007874,0.,0.015748,0.007874,-0.03937,-0.007874,0.007874,-0.015748,-0.007874,-0.023622,-0.023622,-0.023622,-0.007874,0.015748,0.,-0.007874,0.,-0.015748,-0.015748,0.007874,-0.023622,-0.007874,-0.007874,0.007874,0.023622,0.031496,-0.03937,-0.015748,0.023622,-0.007874,0.,-0.031496,-0.015748,0.,0.015748,-0.031496,-0.007874,0.,-0.031496,0.015748,-0.007874,-0.031496,-0.007874,-0.007874,0.047244,-0.07874,-0.023622,-0.007874,-0.047244,0.031496,0.,-0.015748,-0.03937,0.031496,-0.015748,0.055118,-0.03937,-0.047244,0.,0.,0.007874,-0.023622,-0.007874,-0.047244,0.015748,-0.055118,-0.007874,-0.023622,-0.007874,0.,-0.023622,0.03937,0.047244,0.03937,-0.055118,-0.047244,0.,0.,-0.015748,0.,-0.015748,-0.055118,0.055118,-0.007874,-0.007874,0.,-0.007874,-0.007874,0.055118,0.023622,-0.055118,-0.03937,0.007874,0.015748,-0.055118,-0.023622,-0.007874,0.,0.007874,0.015748,-0.007874,0.015748,-0.055118,0.015748,-0.023622,-0.015748,-0.03937,0.047244,-0.015748,0.023622,-0.125984,0.055118,-0.070866,-0.023622,0.212598,-0.047244,0.007874,0.031496,0.031496,-0.007874,-0.07874,0.03937,-0.03937,-0.03937,-0.031496,-0.023622,-0.03937,-0.055118,-0.015748,-0.125984,0.055118,-0.047244,-0.125984,0.070866,-0.031496,-0.070866,-0.03937,0.03937,-0.015748,-0.102362,-0.102362,0.133858,-0.023622,0.165354,-0.275591,-0.031496,0.023622,0.,-0.110236,0.07874,0.055118,0.031496,0.598425,-0.173228,0.212598,-0.125984,-0.110236,-0.07874,-0.023622,0.015748,0.11811,-0.149606,0.015748,0.086614,-0.070866,0.047244,-0.102362,0.062992,0.062992,-0.023622,-0.070866,-0.031496,-0.055118,-0.055118,0.015748,-0.023622,0.086614,-0.03937,-0.031496,0.023622,-0.055118,0.062992,-0.015748,-0.03937,0.,-0.007874,0.007874,-0.015748,-0.031496,-0.023622,-0.015748,0.007874,0.,-0.086614,-0.007874,0.03937,0.03937,0.015748,-0.062992,-0.023622,-0.007874,-0.015748,-0.023622,-0.015748,0.015748,-0.015748,-0.047244,-0.015748,0.007874,-0.015748,0.031496,0.015748,-0.055118,0.03937,-0.062992,0.023622,0.,-0.007874,0.007874,0.007874,-0.007874,-0.007874,0.023622,-0.055118,0.007874,-0.055118,-0.007874,-0.055118,0.03937,-0.015748,0.094488,-0.047244,-0.023622,0.165354,-0.149606,-0.007874,0.055118,-0.055118,-0.007874,-0.031496,0.03937,-0.047244,-0.015748,-0.03937,0.055118,-0.015748,-0.031496,0.055118,0.,-0.031496,0.015748,-0.15748,0.055118,-0.03937,0.062992,0.007874,-0.055118,-0.015748,0.,0.141732,-0.110236,0.007874,0.070866,-0.023622,0.086614,-0.149606,-0.031496,-0.031496,-0.055118,0.023622,0.086614,-0.102362,-0.11811,0.07874,0.,0.149606,-0.094488,-0.102362,-0.070866,-0.023622,-0.015748,0.212598,-0.133858,0.07874,-0.11811,0.086614,0.,-0.055118,-0.102362,0.070866,-0.086614,-0.03937,0.141732,-0.062992,0.07874,-0.031496,-0.047244,-0.062992,-0.062992,0.086614,0.,0.062992,-0.055118,-0.015748,0.07874,-0.070866,-0.070866,0.03937,-0.062992,0.007874,0.023622,0.03937,-0.031496,0.031496,-0.110236,0.007874,0.055118,-0.047244,0.141732,-0.125984,-0.023622,0.070866,0.055118,0.023622,-0.023622,0.015748,0.03937,-0.023622,-0.047244,0.031496,-0.047244,0.07874,0.047244,-0.03937,-0.047244,0.,-0.03937,0.007874,-0.031496,0.062992,-0.047244,-0.047244,0.,-0.015748,0.165354,-0.094488,0.007874,0.007874,-0.102362,0.031496,-0.11811,0.070866,-0.023622,-0.070866,0.047244,0.062992,-0.007874,0.015748,-0.141732,-0.055118,-0.023622,-0.023622,-0.188976,0.133858,0.007874,-0.031496,0.566929,-0.141732,0.141732,-0.086614,-0.188976,-0.165354,0.125984,0.204724,-0.015748,-0.094488,-0.188976,0.015748,0.015748,-0.102362,-0.023622,-0.07874,0.023622,-0.086614,-0.007874,0.007874,0.,0.031496,-0.15748,-0.070866,0.086614,-0.055118,0.055118,-0.007874,-0.031496,-0.031496,-0.015748,-0.086614,0.007874,-0.086614,0.031496,0.015748,-0.023622,-0.070866,-0.110236,0.070866,0.07874,0.125984,-0.007874,0.220472,-0.023622,0.023622,0.125984,-0.031496,-0.11811,0.07874,0.015748,-0.007874,0.031496,-0.015748,-0.110236,-0.086614,0.133858,0.007874,0.173228,-0.125984,-0.055118,-0.047244,0.07874,-0.031496,0.047244,0.062992,0.03937,-0.267717,-0.244094,0.047244,0.015748,0.464567,-0.188976,-0.055118,-0.133858,0.110236,-0.031496,0.11811,-0.251969,0.110236,0.070866,-0.149606,0.141732,-0.19685,0.047244,0.055118,0.070866,-0.338583,0.110236,-0.181102,0.086614,0.07874,0.,-0.228346,0.062992,0.062992,-0.141732,0.204724,-0.11811,-0.125984,0.086614,0.047244,-0.110236,0.03937,-0.03937,0.,0.007874,0.015748,0.015748,-0.07874,-0.023622,-0.007874,0.031496,-0.031496,0.007874,0.,0.007874,0.,-0.055118,-0.023622,0.023622,-0.055118,-0.007874,-0.031496,-0.023622,0.102362,-0.023622,-0.03937,-0.015748,-0.047244,0.055118,-0.031496,0.,0.015748,-0.055118,0.015748,-0.047244,-0.055118,0.031496,0.,-0.015748,0.086614,-0.07874,0.055118,0.007874,-0.055118,0.094488,-0.047244,0.015748,0.062992,-0.055118,0.,0.,-0.03937,0.047244,-0.03937,-0.007874,0.,-0.031496,-0.031496,0.007874,-0.055118,0.023622,0.062992,0.007874,0.03937,-0.070866,-0.015748,-0.007874,0.055118,-0.031496,-0.031496,-0.070866,-0.007874,-0.007874,-0.031496,0.015748,-0.023622,0.007874,-0.031496,0.015748,-0.007874,-0.015748,-0.031496,-0.031496,0.,0.,0.11811,-0.062992,-0.055118,-0.007874,0.031496,-0.03937,0.023622,-0.031496,0.031496,-0.015748,-0.031496,-0.015748,-0.03937,-0.007874,-0.062992,-0.133858,0.03937,0.03937,0.086614,0.110236,-0.102362,-0.047244,0.023622,-0.03937,-0.007874,-0.031496,0.023622,0.,-0.007874,-0.015748,-0.055118,-0.023622,-0.031496,0.11811,-0.110236,0.07874,-0.03937,0.,0.102362,0.062992,0.015748,-0.007874,-0.094488,0.015748,-0.015748,-0.070866,0.062992,-0.086614,-0.062992,-0.015748,0.023622,-0.094488,0.133858,0.062992,-0.03937,0.062992,-0.102362,-0.031496,-0.031496,0.220472,-0.023622,0.181102,-0.19685,0.094488,-0.07874,-0.03937,-0.07874,0.007874,0.03937,-0.062992,0.220472,-0.047244,-0.094488,-0.015748,-0.094488,0.023622,-0.110236,0.094488,0.007874,-0.314961,-0.086614,0.055118,-0.102362,0.047244,0.204724,-0.055118,-0.212598,0.094488,0.023622,-0.15748,-0.070866,0.141732,0.03937,0.110236,-0.141732,0.070866,0.07874,-0.070866,-0.181102,-0.322835,0.055118,-0.141732,0.574803,-0.11811,-0.102362,-0.047244,0.314961,-0.102362,0.031496,-0.031496,-0.094488,0.07874,-0.007874,-0.015748,0.094488,-0.03937,0.015748,0.055118,-0.031496,-0.023622,-0.023622,0.03937,-0.03937,0.062992,-0.094488,0.023622,-0.03937,-0.015748,-0.047244,0.031496,-0.023622,-0.015748,0.007874,0.,-0.03937,-0.015748,0.,0.031496,-0.007874,-0.007874,0.062992,-0.007874,-0.015748,0.,-0.007874,-0.023622,-0.031496,0.007874,-0.015748,0.007874,-0.062992,0.086614,-0.086614,-0.031496,0.086614,-0.07874,0.07874,-0.086614,-0.015748,-0.062992,0.007874,-0.007874,0.,0.031496,-0.070866,-0.031496,-0.023622,0.,-0.007874,-0.007874,-0.070866,0.031496,0.,-0.03937,-0.023622,0.015748,0.007874,0.031496,-0.023622,-0.007874,0.,0.007874,-0.070866,0.015748,0.031496,-0.023622,-0.070866,-0.015748,0.007874,0.015748,-0.11811,0.015748,-0.062992,0.094488,-0.212598,0.141732,-0.102362,0.062992,-0.141732,-0.125984,-0.023622,0.023622,0.220472,-0.055118,0.102362,-0.070866,0.511811,-0.228346,0.086614,-0.11811,-0.023622,-0.03937,0.102362,-0.023622,0.055118,-0.133858,-0.023622,0.055118,-0.047244,0.007874,-0.055118,-0.015748,-0.023622,0.275591,-0.165354,-0.007874,-0.086614,0.015748,-0.015748,-0.055118,0.055118,-0.062992,0.015748,-0.007874,-0.031496,-0.047244,0.110236,-0.015748,0.094488,-0.03937,-0.031496,-0.070866,0.031496,-0.015748,-0.031496,0.055118,-0.03937,-0.007874,0.,0.055118,0.,0.015748,0.015748,-0.07874,-0.07874,0.,-0.007874,-0.023622,-0.023622,0.03937,-0.007874,0.047244,-0.047244,0.07874,-0.070866,-0.15748,0.03937,-0.062992,0.062992,-0.110236,-0.133858,0.03937,-0.086614,0.07874,0.220472,-0.212598,0.023622,-0.031496,0.023622,-0.165354,-0.141732,0.125984,0.062992,-0.251969,0.086614,0.173228,0.070866,-0.244094,-0.125984,0.19685,-0.165354,0.,-0.417323,0.299213,0.023622,0.417323,-0.259843,-0.149606,-0.149606,0.338583,0.716535,-0.488189,-0.007874,0.062992,-0.023622,-0.125984,-0.03937,0.055118,-0.094488,-0.031496,0.086614,-0.086614,-0.070866,-0.07874,0.031496,0.047244,0.070866,0.03937,-0.220472,0.007874,0.102362,0.149606,-0.094488,-0.102362,0.07874,0.094488,-0.015748,-0.03937,-0.110236,-0.031496,0.094488,0.015748,-0.03937,-0.086614,0.055118,0.03937,0.047244,-0.023622,0.03937,-0.055118,-0.070866,0.047244,-0.03937,0.03937,0.055118,-0.062992,0.070866,-0.070866,0.102362,-0.11811,0.03937,0.094488,-0.047244,-0.055118,-0.031496,-0.047244,0.07874,0.031496,0.181102,0.015748,-0.086614,0.023622,-0.055118,-0.094488,-0.055118,-0.110236,0.110236,0.110236,-0.188976,0.15748,-0.165354,0.,0.031496,0.062992,-0.173228,-0.062992,-0.062992,0.07874,-0.070866,0.023622,-0.125984,0.047244,0.110236,0.015748,-0.19685,0.110236,0.007874,0.007874,0.496063,-0.377953,-0.110236,-0.03937,-0.031496,0.031496,-0.07874,0.03937,0.094488,-0.11811,0.055118,-0.023622,0.031496,-0.015748,-0.023622,0.007874,-0.023622,0.015748,-0.03937,0.007874,-0.228346,0.11811,-0.19685,-0.055118,0.102362,-0.023622,0.244094,-0.094488,0.,-0.031496,0.007874,-0.007874,0.007874,-0.023622,0.015748,-0.062992,0.023622,-0.03937,-0.015748,0.,-0.031496,-0.031496,-0.015748,0.086614,-0.07874,0.070866,-0.055118,0.,0.007874,-0.015748,-0.007874,0.,0.015748,0.007874,-0.015748,0.03937,-0.015748,-0.015748,-0.031496,-0.015748,0.007874,0.,-0.007874,-0.055118,-0.023622,0.047244,0.102362,-0.047244,-0.047244,0.,0.007874,0.023622,-0.070866,-0.031496,0.015748,-0.007874,0.015748,-0.023622,0.015748,-0.031496,0.023622,-0.047244,-0.03937,0.007874,-0.03937,-0.031496,-0.015748,0.007874,-0.023622,0.070866,-0.062992,-0.007874,0.,-0.023622,0.007874,-0.055118,0.023622,-0.007874,0.,-0.007874,-0.031496,0.015748,-0.007874,0.047244,-0.015748,-0.023622,0.015748,-0.023622,0.070866,-0.047244,-0.015748,0.,-0.031496,0.031496,-0.007874,-0.031496,0.,0.007874,-0.007874,-0.015748,-0.023622,-0.007874,0.007874,-0.007874,-0.015748,-0.015748,-0.03937,0.023622,0.007874,-0.023622,-0.03937,0.,-0.015748,0.03937,-0.086614,-0.031496,0.,0.,0.007874,0.023622,-0.031496,-0.023622,0.07874,-0.007874,0.023622,-0.03937,0.,0.,0.,-0.015748,-0.03937,-0.015748,-0.015748,-0.007874,0.023622,-0.015748,-0.023622,-0.007874,0.007874,-0.015748,-0.023622,0.,0.031496,-0.007874,-0.007874,-0.007874,0.031496,-0.031496,-0.023622,-0.031496,-0.070866,0.023622,0.047244,-0.047244,-0.03937,-0.023622,-0.023622,0.047244,-0.055118,-0.007874,0.007874,0.03937,-0.031496,0.023622,-0.031496,-0.023622,0.023622,0.007874,-0.015748,-0.023622,-0.031496,0.023622,0.007874,0.015748,0.,-0.023622,-0.031496,0.015748,0.015748,-0.031496,0.015748,-0.023622,-0.023622,-0.015748,0.007874,-0.031496,-0.007874,-0.015748,0.023622,0.031496,0.,-0.055118,-0.015748,-0.015748,-0.015748,0.047244,0.007874,-0.015748,0.007874,-0.031496,0.007874,-0.023622,-0.007874,-0.031496,-0.023622,0.015748,-0.03937,0.,-0.047244,-0.03937,0.023622,0.007874,0.031496,-0.031496,0.,-0.007874,-0.007874,-0.031496,0.007874,0.015748,-0.047244,-0.023622,-0.015748,-0.007874,-0.007874,-0.031496,-0.023622,0.023622,0.,0.055118,-0.031496,-0.015748,0.,0.015748,-0.015748,-0.023622,0.015748,0.,-0.023622,-0.03937,0.,-0.015748,0.015748,-0.007874,-0.015748,0.,-0.007874,-0.007874,-0.023622,0.007874,-0.015748,-0.007874,-0.03937,0.,-0.007874,0.023622,-0.047244,0.015748,0.007874,0.,-0.015748,-0.03937,0.007874,-0.015748,0.031496,-0.007874,-0.007874,-0.031496,0.007874,-0.031496,-0.007874,-0.031496,0.015748,0.023622,0.,-0.031496,0.007874,-0.015748,-0.03937,-0.015748,0.,-0.03937,-0.023622,-0.015748,0.007874,0.,-0.031496,-0.03937,0.,0.,-0.023622,0.023622,-0.015748,0.047244,0.,-0.015748,-0.023622,-0.015748,-0.023622,-0.007874,0.015748,-0.007874,0.03937,-0.023622,-0.07874,0.015748,-0.015748,0.023622,0.007874,-0.015748,0.,0.,-0.007874,-0.03937,0.03937,0.007874,-0.03937,0.,-0.007874,0.023622,0.,0.,-0.023622,-0.015748,0.,-0.015748,-0.015748,-0.023622,-0.015748,-0.015748,0.,-0.015748,0.007874,-0.03937,-0.015748,0.,0.,0.,0.,0.031496,-0.007874,-0.023622,-0.031496,-0.007874,-0.007874,-0.023622,0.015748,-0.031496,-0.007874,-0.007874,-0.007874,-0.03937,0.007874,-0.015748,0.,-0.007874,-0.015748,-0.031496,-0.007874,-0.015748,0.,0.03937,0.,-0.015748,-0.031496,0.031496,0.,0.023622,-0.031496,0.,-0.015748,0.,-0.007874,-0.007874,0.,-0.023622,0.,0.015748,-0.023622,-0.023622,-0.007874,-0.023622,-0.007874,0.015748,0.,-0.047244,-0.015748,0.007874,0.,-0.007874,-0.015748,-0.007874,0.007874,-0.023622
