repovizz,framerate=200
-0.07874,0.062992,-0.015748,-0.007874,0.031496,-0.047244,-0.086614,0.070866,0.062992,-0.031496,0.,0.007874,-0.007874,0.023622,-0.070866,-0.015748,-0.03937,-0.031496,0.015748,0.03937,-0.031496,-0.007874,-0.023622,0.,0.007874,0.031496,0.,-0.047244,-0.031496,0.031496,-0.023622,-0.031496,0.007874,-0.03937,0.047244,-0.023622,-0.023622,-0.070866,0.023622,0.,-0.023622,0.023622,-0.03937,-0.007874,0.,0.,-0.007874,-0.015748,0.007874,0.015748,0.015748,-0.007874,0.,0.007874,-0.007874,0.007874,-0.031496,-0.015748,0.007874,-0.031496,0.015748,-0.007874,0.,0.,0.03937,-0.007874,-0.007874,-0.015748,0.,0.015748,-0.047244,0.,-0.03937,0.023622,0.015748,0.007874,-0.03937,-0.023622,0.007874,-0.062992,0.,0.,-0.007874,0.015748,-0.031496,0.007874,0.015748,-0.070866,-0.007874,0.047244,-0.015748,-0.086614,0.062992,-0.015748,0.023622,-0.031496,-0.007874,-0.015748,-0.015748,-0.070866,-0.03937,-0.007874,0.,-0.125984,0.023622,-0.055118,0.007874,0.275591,-0.047244,0.,-0.023622,0.015748,-0.031496,0.,-0.031496,0.,0.007874,-0.007874,0.03937,-0.055118,-0.062992,0.094488,-0.023622,-0.015748,0.015748,0.023622,0.031496,-0.007874,0.,0.,0.007874,0.007874,-0.141732,-0.023622,0.07874,0.102362,-0.03937,0.03937,-0.133858,-0.055118,-0.070866,0.07874,-0.047244,-0.03937,-0.062992,0.086614,-0.125984,0.125984,-0.070866,-0.07874,0.055118,0.007874,-0.141732,-0.031496,0.015748,-0.070866,0.574803,-0.377953,-0.047244,-0.015748,0.015748,-0.007874,0.007874,0.,-0.055118,-0.023622,-0.03937,0.,-0.015748,-0.031496,0.031496,-0.055118,-0.007874,0.015748,-0.023622,-0.007874,0.,-0.031496,0.070866,0.023622,-0.023622,-0.03937,0.015748,0.007874,-0.031496,0.047244,-0.015748,-0.03937,0.023622,-0.023622,0.007874,-0.031496,0.047244,-0.055118,0.015748,-0.03937,-0.031496,0.15748,-0.031496,-0.11811,0.055118,0.007874,-0.031496,-0.047244,0.047244,0.007874,0.047244,0.007874,0.03937,-0.165354,0.062992,0.023622,-0.055118,-0.031496,0.007874,-0.110236,0.133858,-0.102362,-0.007874,0.385827,-0.299213,-0.015748,0.062992,0.023622,-0.031496,-0.055118,-0.03937,0.007874,0.047244,-0.023622,0.086614,-0.031496,0.11811,-0.031496,-0.212598,-0.007874,-0.055118,0.188976,-0.11811,-0.055118,-0.015748,0.062992,-0.102362,-0.007874,-0.070866,-0.133858,0.015748,0.,-0.023622,0.,-0.055118,-0.03937,0.086614,0.110236,-0.11811,-0.094488,0.244094,-0.204724,0.228346,-0.141732,-0.173228,0.425197,-0.385827,0.03937,-0.015748,0.015748,0.23622,0.023622,-0.070866,-0.094488,-0.11811,-0.023622,-0.220472,0.086614,0.070866,0.409449,-0.023622,-0.212598,-0.070866,0.023622,0.,0.023622,-0.307087,0.070866,0.102362,-0.03937,0.07874,-0.456693,0.15748,0.062992,0.511811,-0.07874,-0.11811,0.031496,-0.047244,0.,0.031496,0.055118,-0.055118,0.070866,-0.007874,-0.094488,0.23622,-0.165354,-0.393701,0.181102,-0.007874,0.370079,0.23622,-0.370079,0.094488,-0.125984,0.062992,-0.188976,0.322835,-0.007874,0.023622,-0.133858,-0.070866,-0.062992,-0.102362,-0.031496,0.094488,-0.173228,-0.110236,0.125984,0.,-0.007874,-0.19685,-0.15748,-0.307087,0.15748,-0.070866,-0.007874,0.007874,-0.251969,0.299213,0.464567,-0.511811,-0.055118,0.212598,-0.19685,-0.062992,0.023622,-0.149606,0.047244,-0.047244,-0.007874,-0.125984,0.015748,0.03937,0.433071,0.031496,-0.440945,0.307087,0.181102,-0.212598,0.,-0.125984,0.110236,0.,0.102362,0.007874,-0.133858,0.173228,-0.149606,0.094488,-0.031496,0.149606,0.377953,-0.173228,-0.102362,-0.307087,-0.015748,0.007874,0.070866,0.102362,-0.070866,0.055118,-0.220472,-0.23622,0.110236,-0.023622,0.125984,-0.11811,0.055118,-0.181102,-0.007874,0.07874,0.094488,-0.086614,0.007874,0.07874,0.007874,0.228346,0.031496,-0.204724,-0.070866,0.070866,-0.149606,0.149606,-0.181102,-0.094488,0.149606,-0.133858,0.165354,-0.047244,-0.141732,0.094488,-0.062992,0.299213,-0.173228,-0.188976,-0.055118,0.031496,0.212598,0.094488,-0.047244,0.,-0.23622,0.047244,0.102362,-0.141732,0.094488,0.181102,-0.133858,-0.03937,0.086614,0.015748,-0.070866,0.,-0.086614,-0.023622,0.181102,-0.165354,0.015748,0.07874,-0.19685,0.031496,0.055118,0.07874,-0.220472,0.031496,0.062992,0.047244,-0.094488,0.448819,-0.362205,-0.244094,0.425197,-0.259843,0.03937,0.03937,-0.070866,-0.23622,0.244094,-0.047244,0.204724,-0.141732,-0.094488,-0.03937,-0.259843,-0.062992,-0.086614,0.228346,-0.188976,0.181102,-0.275591,0.007874,0.283465,-0.370079,0.448819,-0.188976,0.181102,0.015748,-0.141732,-0.007874,-0.188976,-0.086614,0.181102,-0.070866,0.322835,0.181102,0.070866,0.023622,-0.23622,-0.19685,-0.03937,-0.11811,-0.015748,0.188976,-0.220472,0.007874,-0.141732,0.551181,-0.330709,-0.055118,-0.047244,-0.110236,0.031496,0.086614,-0.220472,0.070866,-0.023622,-0.110236,0.314961,-0.181102,-0.15748,0.102362,0.110236,-0.283465,0.307087,0.19685,-0.338583,0.188976,-0.03937,0.212598,-0.251969,0.086614,0.03937,-0.062992,0.15748,-0.307087,0.094488,-0.07874,-0.133858,-0.03937,0.165354,-0.094488,0.23622,0.086614,-0.173228,0.023622,-0.19685,-0.055118,-0.15748,0.173228,0.188976,-0.393701,-0.031496,0.322835,0.212598,0.259843,-0.425197,0.031496,-0.102362,0.070866,0.007874,0.,0.031496,-0.19685,-0.149606,0.047244,0.031496,0.527559,0.165354,-0.913386,0.015748,0.283465,0.417323,0.062992,-0.055118,0.007874,-0.015748,0.204724,-0.07874,-0.338583,0.11811,0.007874,-0.023622,-0.19685,-0.267717,0.141732,-0.094488,0.370079,-0.173228,0.062992,0.251969,-0.330709,-0.141732,0.188976,-0.212598,-0.125984,-0.133858,-0.425197,0.055118,0.377953,0.212598,-0.511811,0.23622,-0.417323,0.496063,0.456693,-0.283465,0.275591,-0.370079,0.212598,0.062992,0.314961,-0.440945,-0.070866,0.,-0.19685,0.23622,-0.15748,-0.11811,-0.055118,0.173228,-0.023622,0.251969,-0.244094,0.212598,-0.19685,-0.070866,0.19685,-0.062992,-0.393701,0.314961,-0.062992,0.149606,0.283465,-0.456693,0.094488,0.220472,-0.110236,-0.125984,-0.007874,-0.070866,-0.165354,-0.086614,0.047244,-0.094488,-0.062992,-0.220472,-0.007874,0.125984,0.228346,0.330709,-0.204724,-0.377953,0.007874,0.023622,0.055118,-0.015748,-0.070866,-0.425197,0.023622,-0.03937,0.,0.614173,-0.283465,0.314961,-0.055118,-0.212598,-0.173228,0.03937,0.007874,0.629921,-0.070866,-0.314961,-0.062992,0.165354,0.015748,0.055118,-0.275591,-0.204724,0.346457,-0.110236,0.527559,-0.503937,-0.055118,0.055118,-0.149606,0.228346,-0.03937,0.07874,-0.212598,0.031496,0.,-0.047244,-0.133858,-0.086614,0.165354,-0.086614,0.645669,-0.866142,0.094488,-0.015748,0.102362,0.614173,-0.070866,-0.283465,0.094488,0.086614,0.086614,-0.19685,0.07874,-0.433071,0.23622,0.267717,0.007874,-0.015748,-0.220472,0.086614,-0.204724,0.11811,-0.244094,-0.110236,0.188976,0.062992,-0.055118,-0.125984,0.110236,-0.19685,0.464567,0.204724,-0.299213,0.07874,-0.125984,0.07874,0.,-0.062992,0.094488,-0.007874,-0.086614,-0.244094,-0.070866,0.212598,-0.125984,0.314961,-0.070866,-0.055118,0.015748,-0.19685,0.,-0.062992,0.094488,-0.259843,0.,-0.031496,0.11811,0.370079,-0.338583,-0.086614,-0.133858,0.283465,-0.173228,-0.055118,0.031496,0.03937,-0.086614,0.11811,-0.125984,0.007874,0.03937,-0.031496,-0.094488,0.070866,-0.031496,-0.062992,0.,0.007874,0.11811,0.110236,-0.141732,0.031496,0.031496,-0.188976,0.07874,0.070866,-0.220472,0.086614,-0.165354,0.062992,0.055118,0.062992,-0.401575,0.03937,-0.007874,-0.023622,0.496063,-0.354331,-0.015748,0.023622,-0.110236,0.181102,-0.094488,0.031496,-0.047244,0.007874,-0.03937,0.181102,-0.181102,0.141732,-0.070866,-0.173228,0.047244,-0.125984,-0.094488,-0.007874,0.503937,-0.212598,0.259843,-0.165354,0.07874,-0.03937,0.007874,0.,-0.023622,0.015748,-0.047244,0.,-0.03937,0.03937,-0.110236,0.110236,-0.070866,-0.007874,0.023622,0.,-0.102362,0.086614,-0.086614,0.086614,-0.055118,-0.007874,-0.062992,0.055118,-0.015748,-0.07874,0.094488,-0.212598,0.19685,-0.133858,-0.015748,0.212598,-0.181102,0.007874,-0.007874,0.031496,-0.062992,0.023622,-0.062992,-0.015748,0.031496,0.03937,0.181102,-0.307087,0.,-0.023622,0.338583,-0.141732,0.03937,-0.086614,0.03937,-0.062992,-0.149606,-0.070866,-0.062992,-0.062992,0.188976,0.173228,-0.133858,0.15748,-0.102362,0.086614,-0.110236,-0.149606,0.,-0.031496,0.,0.062992,0.220472,-0.086614,-0.031496,-0.141732,-0.614173,0.370079,0.023622,0.519685,0.094488,-0.488189,-0.102362,0.110236,0.322835,0.007874,-0.267717,-0.055118,0.299213,-0.181102,0.110236,-0.062992,0.173228,-0.181102,-0.275591,-0.031496,-0.086614,0.259843,0.283465,-0.07874,-0.212598,-0.19685,0.023622,0.370079,-0.291339,-0.141732,0.03937,-0.125984,0.338583,-0.188976,0.102362,-0.173228,0.283465,-0.346457,0.275591,-0.275591,-0.149606,0.496063,-0.149606,-0.070866,0.03937,-0.141732,-0.188976,0.220472,-0.204724,0.590551,0.244094,-0.023622,-0.440945,-0.267717,-0.086614,-0.094488,-0.102362,0.314961,-0.181102,0.055118,0.204724,-0.133858,-0.086614,-0.133858,0.102362,0.047244,-0.15748,-0.007874,0.133858,0.031496,-0.299213,0.23622,-0.291339,0.125984,-0.031496,-0.125984,0.094488,-0.141732,0.385827,-0.015748,-0.070866,0.007874,0.086614,0.204724,-0.244094,-0.102362,0.,-0.015748,0.07874,-0.188976,0.393701,-0.149606,-0.291339,0.291339,-0.212598,-0.055118,0.291339,-0.062992,0.062992,0.03937,-0.204724,0.173228,-0.070866,-0.102362,-0.023622,-0.07874,-0.031496,0.110236,0.267717,-0.188976,0.062992,-0.102362,0.031496,-0.133858,0.031496,0.015748,-0.23622,-0.125984,0.212598,-0.094488,0.23622,-0.299213,-0.023622,0.047244,0.023622,0.11811,-0.125984,-0.07874,0.11811,0.055118,-0.188976,0.007874,0.165354,0.094488,-0.062992,-0.173228,0.228346,-0.19685,-0.283465,-0.07874,-0.141732,0.133858,0.07874,0.456693,0.07874,0.141732,-0.385827,0.07874,0.220472,-0.212598,0.149606,-0.173228,-0.062992,0.354331,-0.102362,0.267717,-0.03937,-0.03937,-0.204724,-0.220472,0.133858,0.11811,0.354331,-0.322835,-0.299213,0.055118,0.149606,-0.015748,0.03937,0.110236,-0.354331,0.007874,0.03937,0.055118,0.062992,-0.244094,-0.283465,0.055118,0.188976,0.314961,-0.291339,0.11811,-0.03937,-0.125984,0.031496,-0.141732,-0.19685,-0.070866,0.314961,-0.220472,0.291339,0.480315,-1.007874,0.125984,0.110236,0.141732,0.519685,-0.637795,0.228346,-0.244094,0.094488,-0.094488,0.511811,-0.15748,-0.220472,-0.204724,0.283465,-0.354331,-0.181102,-0.188976,-0.354331,0.456693,0.110236,0.07874,0.102362,-0.007874,-0.015748,0.370079,-0.212598,-0.062992,0.133858,-0.133858,-0.070866,-0.007874,0.228346,0.173228,-0.267717,-0.456693,0.299213,0.047244,-0.401575,0.291339,0.149606,-0.031496,-0.031496,-0.314961,0.220472,-0.102362,-0.251969,0.188976,0.094488,-0.125984,-0.188976,0.086614,-0.031496,-0.299213,0.519685,0.165354,-0.267717,0.070866,0.330709,-0.259843,-0.149606,0.070866,0.047244,-0.015748,-0.299213,-0.259843,0.283465,0.354331,-0.015748,0.,-0.503937,-0.19685,-0.102362,-0.023622,0.692913,-0.346457,0.07874,-0.173228,-0.220472,0.307087,-0.141732,0.15748,0.165354,-0.322835,0.15748,0.03937,-0.094488,0.070866,-0.133858,0.023622,-0.275591,-0.070866,-0.023622,0.653543,-0.228346,0.070866,-0.244094,-0.102362,0.11811,0.094488,-0.070866,-0.03937,0.11811,0.700787,-0.110236,-0.141732,-0.204724,0.251969,-0.047244,-0.141732,-0.086614,-0.314961,-0.228346,0.574803,0.307087,-0.204724,-0.110236,-0.015748,-0.03937,-0.291339,0.11811,0.11811,0.291339,-0.574803,-0.393701,0.07874,0.055118,-0.03937,-0.314961,-0.015748,0.377953,-0.19685,0.125984,-0.299213,-0.047244,-0.173228,0.149606,-0.094488,-0.496063,0.519685,0.015748,0.086614,-0.11811,0.11811,0.377953,-0.488189,-0.015748,0.212598,-0.299213,0.141732,-0.07874,-0.086614,0.110236,-0.11811,-0.23622,0.03937,0.15748,0.228346,0.125984,0.110236,-0.401575,-0.086614,-0.015748,0.047244,0.456693,-0.582677,-0.015748,-0.03937,-0.007874,-0.094488,0.598425,-0.393701,0.055118,-0.055118,0.070866,-0.283465,-0.07874,0.385827,-0.669291,0.834646,0.007874,0.244094,-0.086614,0.007874,-0.433071,0.19685,-0.362205,-0.007874,0.472441,-0.370079,-0.07874,0.23622,0.259843,-0.055118,0.417323,-0.141732,-0.15748,-0.023622,-0.614173,0.07874,0.19685,-0.086614,0.472441,-0.669291,0.070866,0.102362,0.700787,-0.543307,0.314961,0.07874,-0.031496,0.354331,-0.267717,0.055118,0.314961,-0.007874,-0.307087,0.19685,-0.015748,-0.062992,-0.409449,0.141732,0.181102,0.385827,0.141732,-0.76378,-0.125984,-0.188976,0.622047,-0.11811,-0.259843,0.110236,-0.385827,-0.070866,-0.03937,0.133858,0.503937,-0.110236,-0.275591,-0.023622,-0.173228,0.322835,0.212598,-0.110236,0.015748,-0.181102,-0.007874,-0.149606,-0.228346,0.259843,-0.023622,-0.023622,0.062992,-0.291339,0.165354,0.015748,-0.149606,0.094488,-0.11811,0.102362,-0.125984,-0.047244,0.102362,-0.047244,0.070866,-0.070866,-0.007874,-0.047244,0.133858,-0.173228,-0.133858,0.023622,-0.023622,0.417323,-0.251969,0.102362,-0.212598,0.330709,-0.11811,-0.181102,-0.031496,-0.173228,0.110236,0.165354,0.03937,-0.267717,0.15748,-0.094488,-0.03937,0.110236,-0.055118,0.03937,-0.11811,-0.03937,0.023622,-0.007874,-0.007874,0.110236,0.023622,-0.181102,0.173228,-0.07874,-0.023622,0.,-0.11811,-0.015748,0.023622,0.094488,0.102362,-0.110236,0.023622,-0.062992,-0.031496,0.062992,-0.03937,-0.007874,0.03937,-0.070866,0.007874,0.023622,-0.047244,-0.094488,-0.031496,-0.015748,0.070866,0.15748,0.007874,0.007874,-0.07874,-0.070866,0.055118,-0.007874,0.,-0.07874,0.007874,0.03937,0.,-0.007874,-0.094488,0.031496,-0.062992,-0.007874,-0.047244,0.133858,0.,-0.062992,0.141732,-0.212598,-0.007874,0.007874,-0.03937,-0.023622,-0.031496,-0.086614,0.086614,-0.047244,-0.03937,0.03937,-0.03937,0.015748,-0.055118,0.204724,-0.110236,0.047244,-0.070866,-0.023622,0.03937,0.031496,-0.007874,-0.055118,-0.015748,0.055118,-0.062992,-0.007874,-0.031496,0.031496,-0.094488,-0.047244,-0.070866,-0.11811,0.259843,-0.204724,0.141732,0.023622,-0.19685,0.244094,0.070866,-0.110236,-0.094488,0.086614,0.07874,-0.094488,0.007874,0.,-0.110236,0.055118,-0.141732,-0.031496,-0.086614,0.,0.07874,-0.007874,-0.251969,-0.102362,0.629921,-0.086614,0.23622,-0.314961,0.031496,-0.149606,0.125984,0.133858,-0.031496,-0.125984,0.149606,-0.11811,0.062992,-0.015748,-0.299213,0.519685,-0.314961,-0.102362,-0.03937,0.220472,-0.448819,0.511811,-0.299213,-0.110236,-0.19685,0.015748,0.19685,0.07874,-0.259843,-0.031496,0.370079,-0.055118,-0.086614,-0.031496,-0.007874,-0.094488,0.007874,-0.07874,-0.125984,-0.125984,0.480315,-0.314961,0.015748,0.015748,-0.023622,0.03937,-0.015748,-0.19685,0.015748,0.354331,-0.165354,-0.11811,0.055118,0.267717,-0.275591,0.07874,-0.086614,0.007874,-0.031496,-0.102362,-0.165354,-0.03937,-0.165354,0.133858,0.393701,0.133858,-0.070866,-0.031496,0.614173,-0.417323,-0.228346,0.047244,0.023622,0.,0.314961,0.,-0.299213,-0.03937,-0.244094,-0.07874,-0.023622,0.07874,0.03937,0.259843,-0.362205,0.03937,0.354331,0.055118,-0.23622,-0.007874,0.362205,-0.070866,0.15748,0.19685,-0.11811,-0.015748,-0.055118,-0.259843,-0.086614,0.267717,0.055118,-0.19685,0.031496,-0.181102,0.228346,0.181102,-0.047244,-0.070866,-0.141732,0.141732,-0.149606,-0.212598,-0.094488,-0.023622,0.031496,0.047244,0.259843,-0.23622,-0.102362,0.086614,-0.007874,-0.094488,-0.110236,0.007874,-0.047244,-0.070866,-0.15748,0.251969,0.03937,0.110236,0.165354,-0.354331,0.086614,0.047244,0.062992,0.173228,-0.307087,-0.031496,0.055118,-0.133858,0.070866,-0.062992,-0.070866,0.149606,-0.055118,-0.173228,0.141732,-0.015748,0.204724,-0.062992,0.,-0.094488,0.314961,-0.212598,0.023622,0.070866,-0.283465,0.362205,-0.047244,-0.102362,0.188976,-0.047244,0.03937,-0.204724,0.15748,-0.149606,0.181102,-0.330709,0.07874,-0.149606,-0.015748,0.354331,0.007874,0.23622,-0.15748,-0.047244,-0.267717,-0.047244,0.149606,0.173228,-0.204724,0.165354,-0.023622,0.204724,-0.165354,-0.149606,0.094488,-0.330709,0.283465,0.204724,-0.433071,-0.141732,0.086614,-0.244094,0.669291,-0.622047,-0.070866,0.314961,-0.047244,0.417323,-0.535433,-0.15748,-0.023622,0.070866,0.102362,-0.307087,0.03937,0.228346,-0.23622,0.275591,-0.03937,-0.094488,0.141732,-0.15748,-0.338583,0.,0.220472,0.007874,-0.023622,0.,0.251969,-0.094488,-0.133858,-0.11811,-0.062992,0.259843,0.141732,0.102362,-0.322835,0.220472,0.023622,0.19685,0.023622,-0.11811,-0.15748,0.070866,-0.086614,0.007874,-0.23622,0.173228,0.023622,0.023622,-0.023622,-0.259843,0.19685,-0.015748,0.,-0.086614,-0.149606,-0.07874,0.228346,0.181102,0.,-0.031496,-0.094488,-0.07874,0.102362,-0.267717,-0.149606,0.307087,0.094488,-0.149606,-0.149606,-0.133858,0.417323,-0.062992,0.259843,-0.11811,0.,0.023622,0.047244,-0.094488,-0.110236,-0.165354,0.267717,0.,0.007874,-0.125984,-0.535433,0.307087,-0.464567,0.110236,0.062992,-0.149606,0.354331,-0.23622,0.031496,-0.19685,-0.440945,0.425197,0.267717,-0.370079,-0.007874,-0.614173,0.440945,0.047244,0.346457,0.228346,0.070866,-0.637795,-0.637795,0.692913,-0.582677,0.448819,0.133858,-0.047244,-0.456693,-0.062992,-0.07874,0.228346,-0.220472,0.,0.031496,0.102362,0.102362,-0.251969,0.11811,0.,0.322835,-0.141732,0.03937,-0.110236,0.086614,-0.086614,0.125984,-0.07874,-0.055118,0.031496,-0.125984,0.165354,-0.102362,0.220472,-0.07874,-0.433071,0.204724,-0.055118,0.133858,-0.047244,0.031496,-0.031496,0.047244,-0.007874,-0.15748,0.448819,-0.173228,0.165354,-0.102362,0.015748,-0.204724,-0.094488,-0.03937,0.125984,-0.094488,0.181102,-0.15748,0.070866,0.015748,-0.220472,-0.110236,0.204724,-0.03937,0.,-0.322835,0.173228,-0.141732,0.03937,0.015748,-0.15748,0.354331,-0.173228,0.527559,-0.401575,0.023622,0.173228,0.015748,-0.055118,0.07874,-0.094488,0.354331,-0.244094,0.070866,-0.031496,0.204724,-0.15748,0.047244,-0.110236,-0.133858,0.07874,0.220472,0.149606,-0.102362,-0.771654,-0.110236,0.023622,-0.094488,0.779528,-0.259843,0.787402,-0.401575,-0.574803,0.299213,-0.574803,0.03937,-0.11811,0.007874,-0.11811,-0.031496,0.629921,-0.889764,0.291339,-0.314961,0.370079,0.07874,-0.188976,0.007874,0.015748,-0.007874,-0.165354,0.102362,-0.204724,0.330709,-0.267717,0.204724,-0.133858,-0.173228,0.,0.094488,-0.047244,-0.055118,0.023622,-0.055118,0.062992,-0.03937,-0.007874,0.031496,0.015748,0.03937,-0.015748,0.,-0.047244,-0.070866,-0.102362,0.055118,-0.094488,0.181102,0.07874,-0.133858,0.102362,-0.007874,0.055118,-0.031496,0.015748,-0.007874,0.,0.007874,-0.047244,0.015748,0.094488,-0.070866,-0.007874,-0.19685,0.03937,-0.023622,0.062992,-0.062992,-0.125984,0.007874,-0.023622,0.023622,-0.070866,0.133858,0.,0.031496,-0.094488,0.062992,0.03937,-0.086614,-0.094488,0.062992,-0.055118,0.11811,0.047244,-0.149606,0.,0.03937,-0.007874,-0.055118,-0.023622,0.055118,-0.055118,-0.007874,0.11811,-0.086614,0.047244,-0.133858,0.031496,0.,-0.07874,-0.062992,0.023622,0.055118,-0.015748,0.,-0.188976,-0.031496,-0.031496,0.267717,0.,-0.094488,0.007874,0.047244,-0.07874,0.,-0.094488,0.102362,-0.102362,0.03937,-0.11811,0.07874,0.165354,-0.110236,-0.11811,0.070866,-0.259843,0.062992,0.19685,0.031496,0.,-0.102362,-0.023622,-0.047244,0.23622,-0.031496,0.19685,-0.141732,-0.259843,0.023622,0.173228,0.086614,-0.062992,-0.141732,0.094488,0.070866,0.244094,-0.480315,0.07874,-0.149606,0.267717,0.23622,-0.19685,-0.015748,0.,0.062992,-0.007874,-0.070866,0.,0.102362,-0.070866,-0.141732,-0.094488,-0.220472,-0.102362,0.102362,0.299213,-0.031496,0.102362,-0.370079,0.125984,0.141732,-0.23622,-0.23622,0.015748,-0.031496,0.314961,-0.204724,0.125984,-0.086614,-0.102362,0.228346,-0.322835,-0.070866,0.094488,0.03937,0.070866,-0.141732,0.385827,0.322835,-0.496063,0.19685,-0.314961,0.456693,-0.283465,-0.141732,0.11811,-0.125984,0.102362,0.314961,-0.023622,-0.212598,-0.07874,-0.149606,-0.094488,0.094488,0.322835,0.566929,-0.244094,-0.149606,-0.330709,-0.047244,0.047244,0.03937,0.228346,-0.102362,-0.19685,-0.173228,-0.031496,0.015748,0.110236,-0.031496,0.07874,-0.251969,-0.055118,0.047244,0.181102,0.409449,-0.566929,0.102362,-0.110236,0.047244,0.472441,-0.551181,0.141732,0.,-0.204724,0.212598,0.007874,-0.086614,0.015748,-0.291339,0.141732,0.047244,-0.165354,0.511811,-0.212598,-0.23622,-0.330709,-0.070866,0.055118,0.149606,-0.062992,0.519685,-0.700787,0.173228,0.,0.,0.622047,-0.433071,0.212598,0.031496,0.228346,-0.362205,-0.149606,-0.417323,0.086614,0.732283,0.11811,-0.503937,0.007874,-0.15748,0.259843,0.181102,-0.559055,0.23622,0.031496,0.110236,0.086614,-0.354331,0.322835,-0.307087,-0.086614,0.07874,0.322835,-0.330709,0.125984,-0.03937,-0.07874,0.055118,-0.228346,0.141732,-0.346457,-0.125984,0.322835,-0.03937,-0.015748,0.244094,0.023622,-0.110236,-0.047244,-0.370079,0.275591,-0.062992,0.181102,0.181102,-0.322835,-0.055118,0.,0.251969,0.102362,0.03937,-0.212598,-0.149606,-0.149606,0.23622,0.031496,-0.291339,0.031496,-0.149606,0.401575,0.181102,-0.362205,-0.031496,-0.102362,0.433071,0.070866,-0.19685,-0.062992,-0.102362,0.03937,-0.464567,0.015748,0.228346,0.377953,-0.409449,-0.314961,0.023622,-0.283465,0.716535,-0.212598,0.031496,-0.031496,0.023622,-0.259843,0.464567,-0.307087,0.188976,-0.015748,0.259843,0.023622,0.259843,0.07874,-0.062992,-0.086614,0.023622,-0.220472,0.275591,-0.291339,0.220472,-0.094488,-0.314961,0.606299,-0.354331,0.19685,-0.055118,-0.244094,0.204724,0.346457,-0.370079,-0.409449,0.055118,0.267717,-0.228346,0.110236,-0.338583,-0.23622,0.055118,-0.055118,-0.031496,-0.23622,0.307087,0.11811,-0.566929,0.480315,-0.464567,0.708661,-0.362205,0.346457,-0.031496,-0.062992,-0.409449,-0.023622,-0.188976,-0.015748,0.267717,0.149606,0.149606,-0.346457,-0.173228,0.251969,0.007874,-0.070866,0.,-0.055118,0.086614,-0.283465,0.496063,-0.23622,0.03937,-0.220472,0.645669,-0.409449,-0.007874,-0.086614,-0.212598,0.23622,-0.165354,0.031496,0.204724,-0.094488,-0.259843,0.188976,-0.267717,-0.291339,-0.133858,0.362205,0.700787,-0.267717,-0.322835,-0.212598,-0.149606,0.354331,0.125984,0.086614,-0.070866,-0.165354,0.007874,-0.086614,0.,-0.173228,0.393701,-0.322835,-0.15748,-0.102362,0.149606,0.244094,-0.330709,0.204724,-0.110236,0.220472,-0.228346,-0.015748,0.094488,-0.094488,-0.047244,-0.03937,-0.03937,0.212598,-0.346457,0.519685,-0.228346,0.102362,0.377953,-0.291339,-0.19685,-0.181102,0.047244,0.070866,0.188976,-0.181102,-0.141732,-0.047244,0.511811,-0.259843,0.370079,-0.212598,0.228346,-0.07874,-0.102362,0.023622,0.19685,-0.086614,-0.007874,-0.094488,0.267717,-0.244094,-0.055118,-0.511811,-0.472441,0.598425,0.314961,0.330709,-0.228346,-0.228346,0.023622,-0.385827,0.212598,-0.204724,-0.267717,0.275591,0.062992,-0.173228,0.11811,-0.133858,0.165354,0.15748,-0.346457,0.007874,-0.125984,0.409449,-0.047244,0.385827,-0.519685,0.07874,-0.125984,-0.03937,0.07874,-0.07874,0.511811,-0.385827,0.19685,-0.047244,0.015748,0.204724,-0.165354,-0.055118,0.535433,-0.047244,-0.173228,-0.03937,-0.409449,-0.094488,0.188976,0.015748,-0.086614,0.165354,-0.322835,0.173228,-0.149606,0.244094,-0.188976,0.283465,-0.055118,-0.244094,-0.062992,0.15748,-0.070866,-0.007874,-0.03937,-0.385827,0.023622,-0.062992,-0.141732,0.267717,0.149606,-0.322835,0.149606,0.070866,-0.23622,0.165354,-0.188976,-0.047244,0.086614,0.031496,-0.125984,0.015748,-0.19685,-0.401575,0.80315,-0.598425,0.622047,-0.023622,-0.314961,0.070866,0.173228,-0.181102,-0.11811,0.795276,-0.362205,0.622047,-0.338583,-0.070866,0.,0.047244,-0.464567,0.03937,-0.362205,-0.307087,0.732283,-0.464567,0.055118,0.094488,0.220472,-0.015748,-0.165354,-0.102362,-0.181102,-0.11811,-0.393701,0.724409,-0.496063,-0.102362,0.322835,0.370079,0.173228,-0.653543,-0.031496,-0.732283,0.606299,-0.03937,0.425197,-0.149606,-0.102362,-0.251969,-0.299213,0.488189,-0.393701,0.685039,0.188976,-0.251969,-0.023622,-0.023622,0.007874,-0.047244,0.11811,-0.133858,-0.133858,-0.102362,0.055118,-0.275591,0.212598,0.031496,-0.307087,0.637795,-0.433071,0.291339,0.314961,0.102362,-0.125984,-0.07874,-0.133858,-0.031496,0.11811,0.03937,-0.031496,0.062992,-0.062992,-0.031496,0.11811,-0.086614,0.007874,-0.141732,0.062992,0.07874,-0.094488,0.023622,0.031496,0.007874,-0.094488,-0.047244,-0.070866,0.015748,0.023622,0.,0.055118,-0.031496,-0.015748,-0.086614,-0.023622,-0.007874,0.094488,-0.055118,-0.141732,0.007874,0.11811,0.11811,0.015748,-0.125984,-0.03937,0.03937,-0.031496,0.023622,-0.023622,-0.007874,0.031496,-0.102362,0.11811,0.047244,-0.102362,-0.070866,-0.055118,0.015748,0.,0.047244,-0.11811,-0.015748,-0.015748,0.015748,0.19685,-0.188976,0.055118,0.023622,-0.015748,-0.03937,0.023622,0.007874,-0.031496,-0.007874,0.007874,0.,-0.023622,-0.015748,-0.007874,0.031496,0.031496,-0.047244,-0.055118,-0.015748,-0.023622,0.055118,0.,-0.031496,-0.015748,0.,-0.062992,0.,0.007874,-0.03937,0.11811,-0.015748,-0.047244,0.055118,-0.102362,-0.047244,-0.023622,-0.031496,0.015748,-0.055118,0.015748,0.007874,0.03937,-0.062992,0.,-0.023622,-0.007874,-0.047244,0.03937,0.007874,0.007874,0.023622,-0.047244,0.070866,-0.055118,0.023622,0.015748,-0.015748,-0.070866,-0.094488,0.070866,0.07874,-0.023622,-0.062992,-0.070866,-0.094488,0.165354,0.03937,0.031496,-0.070866,-0.015748,-0.023622,0.015748,0.,-0.015748,0.007874,-0.015748,-0.07874,0.015748,0.03937,-0.031496,0.03937,0.,-0.055118,-0.03937,-0.007874,-0.015748,0.125984,-0.07874,0.055118,0.015748,0.,-0.03937,0.,-0.023622,-0.023622,-0.007874,0.007874,-0.015748,0.,0.062992,-0.055118,0.047244,-0.015748,-0.102362,-0.03937,-0.03937,-0.055118,0.03937,0.023622,-0.031496,0.03937,0.023622,-0.007874,-0.031496,0.,0.03937,-0.007874,-0.047244,0.023622,-0.031496,0.023622,0.015748,-0.007874,-0.047244,-0.007874,0.062992,-0.055118,-0.015748,-0.055118,-0.149606,0.173228,0.094488,-0.133858,0.102362,-0.141732,-0.086614,0.110236,-0.062992,-0.062992,0.023622,-0.023622,-0.015748,0.102362,-0.055118,-0.03937,-0.062992,0.047244,-0.086614,-0.031496,0.047244,0.047244,-0.031496,0.015748,-0.03937,0.055118,0.03937,-0.070866,-0.133858,-0.062992,0.015748,-0.015748,0.23622,-0.110236,-0.070866,0.102362,0.055118,-0.11811,0.102362,0.,-0.055118,0.007874,0.015748,0.007874,0.094488,0.015748,0.015748,0.,-0.047244,0.023622,-0.03937,-0.141732,0.188976,-0.173228,-0.165354,0.133858,-0.047244,0.094488,-0.165354,0.181102,0.007874,-0.062992,-0.007874,-0.015748,-0.007874,-0.102362,0.023622,0.031496,0.023622,0.102362,-0.165354,-0.220472,0.307087,-0.007874,0.181102,-0.07874,0.047244,-0.055118,-0.031496,-0.125984,0.204724,0.228346,-0.03937,-0.125984,-0.062992,0.055118,0.007874,0.094488,0.15748,0.141732,-0.307087,-0.307087,-0.15748,0.023622,0.322835,0.370079,0.055118,-0.401575,-0.551181,-0.110236,0.409449,-0.086614,0.110236,-0.354331,0.19685,-0.220472,0.133858,-0.212598,-0.700787,0.346457,-0.188976,0.307087,-0.464567,0.015748,0.330709,-0.03937,-0.645669,-0.188976,-0.291339,0.377953,0.03937,0.086614,-0.007874,-0.496063,0.204724,0.102362,-0.165354,-0.15748,-0.086614,-0.023622,0.385827,-0.401575,0.173228,-0.346457,0.070866,0.80315,-0.338583,-0.110236,-0.102362,0.181102,-0.149606,-0.023622,0.03937,0.,-0.086614,0.102362,-0.062992,-0.220472,-0.055118,-0.062992,-0.23622,0.708661,-0.094488,0.070866,0.015748,-0.275591,0.102362,0.086614,0.055118,0.094488,-0.212598,0.023622,-0.283465,0.03937,0.086614,0.03937,0.417323,-0.551181,0.173228,0.03937,0.07874,-0.23622,-0.094488,0.149606,0.086614,0.259843,-0.393701,0.047244,0.15748,-0.244094,0.346457,-0.291339,0.047244,0.031496,0.,0.03937,-0.19685,0.007874,-0.070866,0.354331,-0.165354,0.11811,0.03937,-0.275591,0.102362,-0.15748,0.370079,-0.173228,-0.228346,0.110236,0.07874,0.,0.007874,-0.102362,0.03937,-0.03937,-0.094488,-0.007874,-0.062992,0.086614,0.102362,-0.125984,-0.314961,-0.062992,-0.03937,0.354331,-0.07874,-0.047244,-0.133858,0.070866,-0.086614,0.,0.322835,-0.188976,-0.055118,-0.03937,-0.094488,0.141732,-0.07874,0.031496,-0.03937,-0.15748,0.102362,-0.031496,-0.110236,0.023622,0.212598,-0.11811,0.094488,-0.007874,-0.086614,0.047244,0.007874,-0.007874,-0.086614,-0.023622,-0.102362,0.094488,0.141732,-0.244094,0.23622,-0.149606,-0.031496,0.,0.094488,0.015748,0.,-0.023622,0.047244,-0.133858,-0.015748,0.031496,-0.047244,-0.007874,0.03937,-0.015748,-0.070866,-0.03937,0.,0.110236,-0.125984,0.07874,0.015748,0.047244,-0.094488,-0.102362,-0.031496,0.047244,-0.055118,-0.141732,0.212598,0.,-0.070866,-0.007874,-0.07874,0.055118,0.,0.055118,-0.110236,-0.047244,0.070866,0.133858,0.062992,-0.070866,-0.047244,0.007874,-0.047244,0.,-0.212598,0.07874,-0.031496,-0.03937,0.275591,-0.007874,-0.086614,-0.023622,0.11811,-0.023622,-0.015748,0.055118,-0.070866,-0.047244,0.283465,-0.204724,0.07874,-0.125984,0.,-0.047244,0.,-0.007874,-0.19685,-0.007874,0.03937,-0.007874,-0.047244,-0.188976,-0.047244,0.094488,0.062992,0.299213,-0.19685,0.055118,-0.031496,0.070866,-0.062992,0.055118,0.007874,-0.094488,-0.023622,-0.03937,0.07874,0.015748,0.15748,-0.062992,-0.141732,0.07874,0.023622,0.125984,-0.023622,-0.007874,-0.102362,0.023622,0.03937,-0.149606,0.031496,-0.015748,0.102362,0.173228,-0.204724,-0.023622,-0.047244,-0.03937,0.110236,-0.141732,-0.11811,0.070866,0.094488,0.,0.070866,-0.251969,0.062992,0.031496,-0.110236,-0.023622,0.03937,-0.102362,-0.055118,0.047244,-0.07874,0.007874,0.062992,-0.03937,0.015748,-0.047244,0.047244,0.11811,-0.11811,-0.110236,-0.047244,-0.110236,0.055118,0.149606,-0.007874,-0.07874,-0.023622,0.062992,-0.070866,-0.031496,0.125984,0.,0.007874,-0.007874,-0.007874,-0.015748,-0.07874,-0.031496,0.03937,-0.070866,0.015748,0.212598,-0.188976,0.094488,-0.07874,0.11811,-0.07874,-0.086614,-0.062992,0.015748,-0.031496,-0.007874,0.204724,-0.110236,-0.047244,0.023622,-0.094488,-0.165354,0.03937,0.149606,0.125984,-0.165354,-0.062992,0.07874,-0.047244,0.047244,0.031496,-0.086614,0.007874,-0.015748,-0.015748,0.173228,-0.03937,-0.188976,0.094488,-0.07874,-0.055118,0.204724,-0.07874,0.149606,-0.110236,-0.086614,-0.015748,-0.11811,0.181102,0.047244,0.,-0.023622,-0.07874,0.015748,0.11811,-0.062992,-0.023622,0.125984,-0.11811,0.047244,-0.07874,0.251969,-0.11811,-0.03937,0.047244,-0.062992,0.070866,-0.188976,0.,0.062992,0.047244,-0.062992,-0.031496,-0.007874,-0.070866,-0.007874,-0.03937,0.031496,-0.086614,0.173228,-0.023622,-0.220472,0.070866,0.062992,0.03937,-0.181102,0.,-0.007874,0.165354,-0.015748,-0.086614,0.267717,-0.141732,0.023622,-0.031496,-0.047244,-0.015748,0.007874,-0.110236,-0.094488,-0.03937,0.070866,0.055118,-0.070866,0.031496,-0.141732,0.15748,-0.023622,-0.07874,0.047244,-0.07874,0.031496,-0.023622,-0.047244,0.023622,0.,-0.062992,0.094488,0.070866,-0.149606,-0.007874,-0.11811,0.03937,-0.070866,0.007874,0.047244,0.19685,-0.055118,0.062992,-0.094488,0.07874,-0.03937,-0.015748,-0.15748,-0.015748,0.11811,0.062992,-0.220472,0.023622,-0.055118,-0.055118,0.527559,-0.220472,-0.007874,-0.070866,0.023622,0.007874,-0.110236,0.062992,-0.031496,0.094488,-0.047244,-0.007874,-0.031496,-0.055118,-0.007874,0.015748,-0.047244,-0.031496,0.,-0.015748,-0.055118,0.015748,-0.047244,0.220472,-0.047244,-0.062992,0.03937,-0.031496,-0.023622,-0.125984,0.094488,-0.023622,0.173228,-0.03937,-0.047244,-0.11811,0.007874,-0.031496,0.07874,-0.055118,-0.031496,-0.062992,-0.062992,0.070866,-0.070866,0.181102,0.,-0.07874,-0.11811,0.055118,0.047244,0.055118,0.141732,-0.086614,-0.047244,0.031496,-0.023622,-0.015748,-0.047244,-0.062992,0.015748,0.031496,-0.055118,0.110236,-0.094488,0.015748,-0.070866,0.102362,-0.23622,0.07874,0.015748,-0.125984,0.165354,-0.204724,0.141732,-0.062992,-0.023622,0.110236,-0.181102,-0.023622,-0.102362,0.102362,0.094488,0.023622,-0.086614,-0.062992,-0.055118,-0.086614,0.330709,-0.133858,0.070866,-0.07874,-0.007874,0.055118,-0.007874,0.070866,-0.110236,-0.007874,-0.047244,0.031496,-0.11811,0.055118,-0.007874,-0.070866,-0.03937,0.031496,-0.062992,0.094488,0.,-0.047244,0.149606,-0.204724,0.031496,-0.062992,0.047244,-0.094488,-0.165354,0.031496,-0.015748,0.15748,0.055118,-0.188976,-0.007874,-0.015748,0.149606,0.322835,-0.204724,0.015748,0.007874,-0.015748,0.,0.047244,-0.11811,-0.055118,0.03937,0.023622,0.275591,-0.23622,0.102362,-0.023622,-0.015748,0.03937,-0.047244,-0.031496,0.,-0.062992,0.023622,-0.055118,-0.007874,0.070866,-0.062992,0.062992,-0.086614,-0.102362,-0.03937,0.149606,-0.11811,0.133858,-0.188976,0.062992,0.031496,0.086614,0.094488,-0.086614,0.055118,-0.165354,0.11811,-0.062992,-0.125984,0.086614,0.07874,-0.062992,0.165354,-0.125984,-0.094488,0.023622,0.062992,-0.047244,-0.015748,0.,-0.055118,0.110236,-0.055118,0.007874,-0.023622,-0.023622,0.102362,-0.031496,-0.03937,0.007874,-0.03937,0.007874,0.,-0.015748,0.,0.,0.,0.015748,-0.031496,-0.007874,-0.007874,-0.031496,-0.007874,-0.007874,-0.023622,0.055118,0.03937,-0.062992,0.062992,-0.070866,0.,0.007874,-0.007874,-0.007874,-0.015748,-0.03937,0.007874,0.,0.007874,-0.015748,-0.015748,-0.023622,0.007874,-0.015748,0.015748,0.015748,-0.023622,-0.031496,-0.015748,0.023622,-0.055118,0.015748,0.031496,0.,-0.047244,-0.007874,0.007874,0.031496,0.,0.023622,-0.023622,-0.110236,0.007874,0.023622,-0.023622,0.,-0.031496,-0.047244,-0.007874,0.023622,0.047244,0.03937,-0.03937,-0.03937,-0.047244,-0.007874,0.015748,0.007874,0.,0.023622,-0.023622,0.,0.,-0.007874,-0.007874,0.015748,-0.03937,-0.055118,-0.062992,-0.023622,0.055118,0.055118,0.,-0.031496,0.007874,-0.110236,0.07874,-0.007874,-0.031496,-0.015748,0.015748,0.047244,-0.110236,0.015748,0.055118,-0.094488,0.047244,0.007874,-0.055118,-0.023622,-0.03937,0.07874,0.007874,-0.007874,-0.03937,-0.03937,-0.086614,0.,0.055118,0.07874,-0.165354,0.023622,-0.015748,0.055118,-0.055118,-0.007874,0.062992,-0.110236,0.102362,0.03937,0.055118,-0.047244,-0.07874,0.031496,0.031496,0.007874,0.007874,0.,-0.047244,0.062992,0.023622,-0.023622,0.,-0.062992,0.031496,0.07874,-0.023622,0.,-0.110236,0.062992,-0.015748,0.,-0.11811,0.023622,0.031496,-0.133858,0.062992,0.055118,-0.015748,-0.062992,0.,-0.031496,-0.015748,0.015748,0.125984,-0.133858,-0.015748,-0.173228,0.228346,-0.141732,-0.086614,0.110236,0.062992,-0.062992,0.125984,-0.062992,0.007874,-0.125984,0.15748,-0.070866,-0.11811,-0.19685,0.11811,-0.188976,0.086614,0.055118,-0.055118,0.346457,-0.346457,-0.062992,0.015748,0.031496,-0.15748,-0.110236,0.110236,-0.062992,-0.102362,0.015748,-0.062992,0.086614,0.173228,-0.173228,-0.267717,0.11811,0.165354,-0.165354,0.19685,-0.070866,0.251969,0.519685,-0.362205,0.291339,-0.409449,-0.102362,-0.031496,0.015748,-0.062992,0.031496,-0.220472,0.094488,0.362205,-0.110236,0.291339,-0.314961,0.03937,0.259843,-0.11811,0.,-0.244094,-0.055118,-0.055118,0.031496,-0.047244,0.173228,-0.070866,-0.07874,-0.055118,-0.015748,0.133858,-0.055118,-0.062992,-0.070866,0.023622,0.086614,0.086614,-0.086614,-0.031496,0.062992,-0.110236,0.03937,-0.015748,-0.062992,0.023622,0.,0.055118,-0.102362,0.,-0.07874,-0.047244,0.023622,-0.086614,-0.007874,0.03937,-0.165354,0.102362,0.07874,-0.047244,0.007874,-0.047244,-0.086614,0.023622,0.062992,0.031496,-0.070866,0.,-0.007874,0.055118,-0.007874,-0.055118,-0.094488,0.15748,-0.102362,-0.062992,-0.023622,-0.07874,0.275591,-0.015748,0.102362,-0.03937,0.023622,0.015748,0.,-0.149606,0.149606,-0.15748,0.023622,-0.023622,0.023622,0.165354,-0.173228,-0.015748,0.11811,0.086614,-0.125984,0.023622,0.,-0.086614,0.204724,-0.291339,0.023622,0.125984,-0.204724,0.354331,-0.165354,0.,-0.11811,0.125984,-0.212598,0.,0.133858,0.188976,0.031496,-0.149606,-0.188976,0.220472,-0.212598,0.165354,0.393701,-0.425197,0.,-0.322835,-0.023622,0.133858,-0.15748,-0.110236,-0.007874,-0.070866,0.015748,0.03937,-0.03937,0.15748,-0.055118,0.055118,0.212598,-0.307087,-0.047244,0.19685,-0.23622,-0.062992,0.165354,-0.110236,0.149606,-0.007874,0.015748,-0.055118,-0.228346,0.188976,0.047244,0.086614,-0.283465,0.03937,0.07874,-0.062992,-0.102362,0.031496,-0.03937,0.007874,0.15748,-0.07874,0.055118,-0.070866,-0.165354,0.212598,-0.023622,0.007874,0.110236,-0.425197,0.102362,0.062992,0.314961,-0.07874,0.03937,0.007874,0.031496,-0.125984,-0.070866,0.03937,-0.03937,0.362205,-0.181102,-0.007874,-0.204724,0.15748,-0.11811,0.07874,-0.070866,0.110236,-0.165354,0.007874,0.023622,-0.023622,0.102362,-0.086614,-0.212598,0.314961,-0.228346,-0.007874,-0.181102,0.055118,-0.031496,0.007874,0.228346,-0.023622,-0.102362,0.03937,-0.133858,-0.291339,0.141732,-0.181102,-0.086614,0.141732,0.149606,0.055118,0.755906,0.173228,-0.102362,-0.047244,-0.314961,-0.503937,0.700787,0.244094,-0.259843,-0.212598,-0.354331,0.015748,0.535433,-0.330709,0.102362,-0.212598,0.031496,-0.346457,-0.102362,0.251969,0.055118,0.007874,-0.102362,-0.385827,0.03937,0.062992,-0.070866,0.031496,-0.165354,0.102362,0.15748,-0.11811,0.007874,-0.204724,0.125984,-0.19685,0.062992,-0.11811,-0.11811,-0.102362,0.251969,-0.015748,-0.07874,0.598425,-0.338583,0.385827,-0.062992,-0.023622,-0.102362,0.,0.11811,-0.102362,0.133858,-0.031496,-0.110236,-0.165354,0.11811,0.15748,0.07874,-0.007874,-0.165354,0.031496,0.165354,-0.102362,0.094488,0.03937,0.181102,-0.543307,-0.685039,0.283465,0.,0.700787,-0.299213,0.07874,0.181102,-0.031496,-0.141732,-0.220472,-0.354331,0.283465,0.251969,-0.440945,0.259843,-0.338583,0.393701,0.133858,-0.03937,-0.645669,0.448819,-0.472441,0.07874,0.346457,-0.283465,-0.181102,-0.07874,0.393701,-0.338583,0.574803,-0.314961,-0.125984,0.094488,0.110236,-0.212598,0.141732,-0.007874,0.031496,0.023622,-0.11811,0.015748,-0.110236,0.023622,-0.062992,0.15748,0.102362,-0.055118,0.03937,0.,-0.015748,0.070866,-0.062992,0.03937,-0.031496,-0.086614,-0.03937,0.023622,-0.007874,0.047244,-0.133858,0.015748,0.015748,-0.023622,0.19685,-0.110236,0.007874,-0.070866,-0.062992,-0.062992,-0.102362,0.15748,-0.070866,-0.062992,0.047244,-0.188976,0.188976,-0.007874,-0.03937,0.165354,-0.070866,-0.031496,0.070866,-0.03937,-0.007874,-0.031496,-0.03937,0.023622,-0.007874,-0.015748,0.133858,-0.141732,0.023622,-0.015748,-0.086614,-0.062992,0.110236,0.094488,0.055118,-0.062992,0.03937,-0.102362,0.031496,-0.031496,-0.031496,0.023622,-0.070866,0.055118,-0.125984,0.125984,-0.07874,-0.047244,0.125984,-0.015748,-0.086614,-0.007874,-0.023622,0.015748,-0.055118,0.062992,0.07874,-0.023622,-0.102362,0.015748,0.070866,-0.070866,0.03937,-0.047244,0.015748,-0.110236,0.007874,0.007874,-0.11811,0.062992,-0.125984,-0.086614,0.055118,-0.070866,0.,0.275591,-0.094488,-0.086614,0.15748,-0.07874,0.031496,0.015748,-0.015748,0.047244,-0.031496,0.055118,-0.110236,-0.047244,0.007874,0.204724,-0.11811,-0.070866,0.228346,-0.283465,0.173228,0.055118,0.007874,-0.031496,-0.19685,0.070866,-0.015748,-0.165354,0.188976,-0.07874,-0.370079,0.007874,0.110236,-0.149606,0.291339,0.062992,-0.220472,0.409449,-0.19685,-0.204724,0.031496,0.141732,-0.440945,0.732283,-0.409449,0.275591,-0.228346,-0.023622,-0.440945,0.511811,-0.07874,-0.212598,0.409449,-0.173228,-0.133858,0.,0.023622,0.141732,-0.133858,0.055118,0.220472,-0.275591,-0.401575,0.519685,-0.165354,-0.133858,0.149606,-0.125984,-0.283465,0.267717,-0.165354,-0.23622,0.283465,-0.590551,0.574803,-0.094488,-0.291339,-0.110236,0.606299,-0.204724,-0.204724,-0.472441,0.03937,-0.181102,0.543307,-0.488189,-0.070866,0.141732,0.527559,-0.440945,0.15748,0.03937,-0.19685,0.385827,-0.094488,-0.141732,0.086614,-0.047244,-0.031496,0.125984,-0.023622,-0.141732,-0.062992,-0.03937,-0.11811,0.629921,-0.228346,-0.086614,-0.149606,-0.023622,-0.031496,0.,-0.11811,0.110236,0.,0.125984,-0.031496,-0.11811,0.102362,0.047244,-0.086614,0.007874,0.11811,0.,-0.070866,0.055118,0.047244,-0.15748,0.110236,-0.094488,0.094488,0.007874,-0.23622,0.165354,-0.188976,0.070866,-0.070866,0.070866,0.03937,-0.125984,0.086614,-0.086614,-0.07874,-0.149606,0.275591,-0.165354,-0.031496,-0.110236,0.204724,-0.149606,-0.102362,0.141732,-0.220472,0.141732,0.023622,-0.07874,0.031496,0.102362,-0.07874,0.11811,-0.007874,-0.275591,0.283465,-0.133858,0.023622,-0.023622,0.070866,-0.055118,-0.055118,0.228346,-0.149606,-0.047244,0.007874,-0.062992,-0.023622,0.023622,-0.307087,0.291339,-0.007874,-0.047244,-0.055118,-0.425197,-0.267717,0.496063,0.047244,0.07874,0.212598,-0.228346,0.811024,-0.464567,0.228346,-0.149606,-0.267717,0.047244,0.,-0.062992,0.362205,-0.267717,0.055118,0.125984,-0.259843,-0.110236,0.204724,-0.19685,-0.007874,0.606299,-0.440945,0.188976,-0.228346,0.062992,0.007874,-0.173228,-0.070866,0.047244,-0.149606,0.188976,-0.149606,-0.204724,0.220472,-0.086614,0.409449,-0.299213,-0.11811,-0.023622,0.173228,-0.181102,-0.086614,0.11811,-0.031496,-0.125984,0.015748,0.133858,-0.031496,0.244094,-0.173228,-0.133858,-0.07874,0.19685,-0.181102,-0.047244,-0.031496,0.212598,0.204724,-0.110236,-0.094488,0.055118,0.11811,-0.338583,0.102362,-0.141732,0.149606,-0.244094,-0.031496,-0.141732,0.015748,0.259843,-0.062992,0.,-0.11811,-0.094488,0.267717,-0.496063,-0.055118,0.070866,0.19685,-0.503937,0.275591,0.496063,0.338583,-0.299213,-0.448819,0.354331,-0.629921,0.220472,-0.700787,0.858268,0.11811,0.401575,-0.377953,-0.401575,-0.393701,0.354331,0.708661,-0.748031,-0.047244,0.314961,0.173228,-0.283465,-0.023622,-0.055118,0.015748,-0.03937,0.055118,-0.259843,0.03937,-0.188976,0.031496,0.346457,-0.031496,0.244094,-0.370079,-0.047244,0.173228,0.11811,-0.133858,-0.11811,0.220472,-0.055118,-0.007874,-0.11811,-0.244094,0.228346,0.141732,0.062992,0.007874,-0.19685,-0.007874,0.062992,0.11811,-0.03937,0.086614,0.055118,-0.03937,0.188976,-0.181102,0.15748,-0.251969,-0.204724,0.15748,-0.188976,0.259843,-0.047244,0.11811,0.212598,0.07874,-0.314961,-0.133858,-0.125984,0.007874,0.11811,0.275591,-0.11811,-0.244094,0.19685,-0.070866,-0.031496,-0.055118,-0.188976,0.283465,0.220472,-0.503937,0.385827,-0.19685,0.165354,0.07874,-0.110236,-0.299213,0.03937,0.299213,0.062992,-0.11811,-0.259843,-0.559055,0.362205,0.244094,-0.007874,-0.251969,-0.19685,-0.15748,0.251969,0.692913,-0.480315,-0.03937,-0.11811,-0.125984,0.007874,-0.165354,-0.047244,0.267717,-0.165354,0.220472,0.023622,-0.007874,0.,-0.007874,0.149606,-0.094488,0.015748,-0.070866,-0.15748,-0.188976,0.275591,-0.448819,-0.015748,0.19685,-0.094488,0.511811,-0.259843,0.023622,-0.141732,0.007874,0.031496,-0.007874,-0.015748,-0.031496,-0.031496,0.070866,-0.062992,-0.062992,-0.007874,-0.062992,-0.07874,0.094488,0.086614,-0.086614,0.181102,-0.062992,0.023622,-0.03937,-0.055118,0.015748,0.015748,-0.007874,-0.015748,0.,0.03937,0.031496,0.,-0.070866,0.031496,0.,-0.007874,-0.023622,-0.110236,-0.062992,0.11811,0.086614,-0.062992,-0.094488,0.,-0.015748,0.070866,-0.047244,-0.031496,0.03937,0.,0.094488,-0.07874,0.,-0.086614,0.031496,-0.070866,-0.031496,0.,-0.023622,-0.070866,-0.007874,0.015748,0.007874,0.070866,-0.086614,0.023622,-0.015748,-0.070866,-0.03937,-0.094488,0.007874,0.11811,0.133858,-0.023622,-0.023622,-0.023622,-0.015748,0.03937,-0.047244,-0.03937,0.015748,-0.015748,0.007874,-0.047244,-0.070866,0.007874,0.,0.110236,0.007874,-0.047244,0.007874,-0.015748,-0.007874,-0.007874,0.031496,-0.007874,-0.03937,0.031496,-0.023622,-0.03937,-0.141732,0.047244,0.094488,-0.055118,-0.047244,0.03937,-0.062992,0.015748,-0.023622,-0.023622,0.03937,0.03937,-0.086614,0.007874,-0.023622,-0.07874,0.362205,-0.094488,-0.070866,-0.062992,0.031496,-0.007874,0.007874,0.007874,-0.086614,-0.023622,0.023622,-0.023622,0.062992,-0.055118,-0.047244,0.125984,-0.007874,-0.07874,0.,0.,0.023622,-0.023622,0.023622,0.015748,0.055118,-0.070866,0.007874,-0.055118,-0.141732,0.102362,0.015748,-0.031496,-0.062992,-0.055118,0.094488,-0.031496,-0.031496,-0.070866,0.015748,0.047244,0.03937,0.102362,-0.062992,-0.055118,0.023622,-0.023622,-0.070866,-0.007874,-0.007874,0.07874,-0.125984,0.03937,-0.007874,-0.023622,0.007874,0.07874,-0.086614,-0.031496,-0.015748,-0.015748,0.007874,-0.031496,0.031496,-0.086614,-0.047244,0.,0.023622,0.07874,-0.023622,-0.023622,0.023622,0.,0.,-0.062992,0.015748,-0.023622,-0.062992,-0.015748,0.086614,-0.07874,0.086614,-0.094488,-0.007874,-0.007874,0.023622,-0.055118,-0.07874,0.007874,0.031496,0.070866,-0.03937,-0.015748,-0.023622,0.133858,-0.094488,-0.03937,0.055118,-0.070866,-0.015748,-0.03937,0.,0.03937,0.094488,-0.031496,-0.11811,0.07874,0.023622,-0.007874,0.,0.031496,-0.062992,0.031496,-0.133858,-0.070866,0.055118,-0.007874,-0.015748,0.047244,-0.133858,0.07874,0.03937,-0.03937,-0.031496,0.007874,-0.047244,-0.015748,0.,0.007874,-0.031496,-0.007874,-0.023622,0.062992,0.062992,-0.086614,0.007874,-0.070866,0.023622,0.086614,-0.070866,-0.023622,0.015748,-0.055118,0.062992,-0.165354,0.11811,-0.03937,-0.03937,0.,0.047244,-0.03937,0.03937,-0.047244,0.,0.023622,-0.03937,0.070866,-0.062992,-0.062992,-0.007874,0.070866,-0.070866,-0.023622,0.086614,-0.015748,-0.015748,-0.023622,0.,0.015748,0.,-0.031496,-0.055118,0.070866,0.,-0.015748,-0.062992,0.023622,-0.086614,0.086614,0.03937,-0.031496,0.007874,-0.015748,-0.125984,0.023622,0.007874,-0.007874,0.125984,-0.173228,-0.007874,0.086614,0.031496,-0.086614,0.007874,0.055118,-0.188976,0.062992,-0.007874,-0.047244,0.165354,-0.125984,0.023622,-0.055118,0.062992,0.,0.023622,-0.015748,-0.023622,-0.023622,0.031496,-0.03937,0.023622,-0.031496,-0.03937,-0.007874,0.015748,0.094488,-0.055118,0.070866,-0.141732,0.047244,-0.03937,-0.031496,0.015748,-0.031496,-0.023622,-0.031496,0.023622,0.031496,-0.023622,0.015748,0.03937,-0.204724,0.125984,-0.007874,-0.047244,0.055118,-0.03937,0.023622,0.,-0.031496,0.062992,-0.023622,0.,-0.031496,0.015748,-0.03937,0.047244,0.03937,-0.094488,-0.015748,-0.015748,-0.023622,0.023622,-0.047244,-0.055118,0.149606,-0.094488,0.023622,-0.062992,0.023622,-0.023622,0.062992,-0.047244,-0.062992,-0.007874,0.023622,-0.03937,0.03937,-0.023622,-0.015748,0.070866,-0.03937
