repovizz,framerate=200
-0.007874,0.015748,-0.007874,0.015748,-0.015748,0.,-0.023622,-0.007874,0.,-0.015748,-0.007874,0.,-0.015748,-0.007874,-0.015748,-0.007874,0.007874,0.,0.,-0.023622,-0.007874,0.007874,-0.015748,-0.007874,0.,0.015748,-0.007874,0.,-0.007874,-0.007874,-0.007874,-0.015748,-0.015748,0.,0.015748,-0.023622,0.,-0.023622,0.,0.,-0.007874,-0.007874,-0.007874,-0.007874,-0.015748,-0.031496,-0.015748,0.007874,0.007874,0.007874,0.015748,-0.007874,-0.015748,0.,-0.015748,-0.007874,-0.015748,0.03937,-0.007874,0.007874,-0.023622,-0.031496,0.,0.015748,-0.015748,-0.031496,-0.03937,0.023622,0.007874,0.023622,0.023622,-0.031496,-0.031496,-0.007874,-0.007874,-0.023622,0.015748,-0.03937,-0.015748,0.007874,0.023622,-0.03937,-0.023622,-0.062992,0.007874,0.047244,0.007874,0.,-0.023622,-0.015748,-0.007874,-0.015748,0.007874,0.,-0.015748,-0.015748,-0.015748,0.,0.023622,0.,-0.007874,-0.031496,0.,-0.007874,-0.03937,-0.047244,0.,-0.062992,0.07874,0.031496,0.031496,0.062992,-0.062992,-0.047244,0.03937,-0.023622,-0.031496,-0.015748,0.023622,0.,0.03937,0.,-0.07874,-0.007874,-0.031496,-0.007874,-0.047244,0.047244,-0.007874,0.015748,-0.015748,-0.062992,-0.031496,0.,0.007874,-0.007874,-0.023622,-0.015748,0.015748,-0.03937,0.062992,0.031496,-0.055118,-0.03937,0.031496,0.031496,0.,0.031496,-0.062992,-0.007874,-0.023622,-0.007874,0.055118,-0.015748,-0.007874,-0.007874,0.015748,0.015748,-0.015748,0.,-0.07874,-0.047244,0.,0.015748,0.015748,0.,-0.015748,0.007874,0.,-0.015748,-0.007874,-0.007874,-0.023622,0.,-0.007874,0.,0.007874,-0.03937,-0.007874,-0.007874,0.,0.,0.007874,-0.015748,-0.015748,0.,0.,-0.007874,-0.015748,0.007874,-0.023622,-0.015748,0.,-0.007874,0.007874,0.007874,-0.023622,0.015748,-0.007874,-0.007874,0.015748,-0.007874,0.007874,0.007874,0.,-0.031496,-0.015748,0.007874,-0.015748,0.,0.,-0.015748,-0.023622,-0.023622,0.,-0.007874,-0.015748,-0.007874,0.007874,0.007874,-0.023622,-0.007874,-0.007874,0.,-0.023622,0.,0.007874,-0.031496,0.03937,-0.03937,-0.007874,-0.015748,0.,-0.047244,0.023622,0.,-0.047244,-0.023622,0.,0.023622,0.070866,-0.015748,-0.094488,0.055118,-0.023622,0.031496,0.007874,-0.031496,-0.031496,0.,0.,-0.023622,0.007874,-0.023622,0.007874,-0.023622,0.,0.015748,0.007874,0.007874,-0.141732,0.062992,0.,0.015748,-0.031496,0.,0.023622,-0.031496,0.055118,-0.07874,-0.062992,0.03937,-0.03937,-0.023622,-0.007874,-0.023622,0.094488,-0.023622,0.023622,-0.023622,-0.03937,0.015748,-0.031496,0.023622,-0.031496,0.015748,-0.047244,-0.11811,0.055118,-0.007874,0.047244,-0.062992,0.023622,0.031496,0.031496,-0.023622,-0.023622,0.015748,-0.070866,0.007874,-0.015748,-0.047244,0.031496,0.015748,-0.03937,0.,0.015748,0.015748,0.,0.015748,-0.023622,-0.007874,0.015748,0.031496,0.,-0.031496,-0.047244,-0.007874,0.,0.055118,-0.007874,0.,-0.062992,0.023622,0.023622,0.007874,-0.031496,0.007874,-0.047244,-0.062992,0.015748,-0.015748,-0.023622,0.,-0.03937,0.062992,0.047244,-0.03937,-0.015748,0.015748,-0.031496,-0.031496,-0.055118,-0.023622,-0.023622,0.023622,-0.070866,0.031496,0.03937,-0.023622,-0.055118,0.055118,0.031496,-0.070866,-0.094488,0.062992,0.,-0.094488,-0.015748,0.125984,0.125984,-0.133858,-0.015748,0.047244,0.102362,-0.031496,-0.110236,-0.102362,0.,-0.055118,-0.133858,0.07874,0.,0.102362,0.165354,-0.173228,-0.055118,-0.047244,-0.070866,0.094488,-0.086614,0.094488,0.086614,-0.141732,0.031496,-0.031496,-0.023622,0.094488,-0.031496,0.07874,-0.188976,0.070866,-0.007874,0.07874,0.015748,-0.125984,0.031496,0.03937,-0.086614,-0.259843,0.007874,0.094488,0.354331,-0.19685,-0.102362,0.062992,0.070866,0.007874,0.,0.007874,0.,-0.062992,-0.11811,-0.102362,0.07874,-0.031496,0.023622,0.031496,-0.094488,-0.047244,0.094488,0.094488,-0.03937,0.11811,-0.094488,0.023622,-0.047244,0.11811,-0.015748,-0.125984,0.070866,-0.055118,-0.188976,-0.133858,0.086614,0.102362,0.299213,-0.110236,-0.275591,0.181102,0.11811,-0.086614,0.062992,-0.228346,0.15748,-0.070866,0.125984,0.133858,-0.251969,-0.055118,0.023622,-0.031496,0.440945,0.181102,-0.795276,-0.283465,0.188976,-0.125984,-0.062992,0.425197,0.370079,-0.377953,0.204724,-0.070866,0.007874,-0.133858,-0.102362,-0.401575,0.125984,0.07874,0.055118,-0.385827,-0.322835,0.23622,0.566929,0.346457,-0.472441,0.149606,-0.086614,-0.031496,-0.023622,0.031496,-0.299213,0.07874,-0.023622,-0.181102,0.015748,-0.204724,-0.094488,0.283465,-0.086614,0.086614,-0.181102,-0.181102,0.15748,0.330709,-0.181102,-0.181102,0.251969,-0.023622,0.015748,0.03937,-0.110236,-0.19685,0.149606,-0.283465,0.015748,0.212598,0.094488,0.149606,-0.070866,-0.393701,-0.047244,0.015748,0.598425,0.165354,-0.511811,0.015748,0.023622,-0.062992,-0.322835,0.023622,0.141732,0.094488,-0.007874,0.149606,-0.149606,-0.19685,0.299213,0.283465,-0.110236,-0.055118,-0.094488,-0.07874,-0.031496,-0.212598,0.322835,0.456693,-0.338583,0.370079,-0.244094,-0.047244,-0.070866,-0.047244,-0.015748,0.03937,-0.03937,0.062992,0.661417,-0.527559,-0.23622,-0.047244,-0.338583,0.031496,-0.102362,0.464567,0.338583,-0.472441,0.141732,0.125984,0.149606,-0.165354,-0.047244,0.07874,0.031496,-0.346457,-0.669291,0.511811,0.086614,0.267717,0.511811,-0.740157,0.102362,-0.188976,0.732283,-0.598425,-0.480315,-0.267717,0.409449,0.811024,-1.007874,0.740157,-0.314961,0.606299,-0.047244,-0.874016,-0.220472,-0.141732,0.401575,0.661417,0.259843,-0.779528,-0.062992,-0.007874,-0.503937,0.070866,-0.110236,0.433071,0.354331,-0.338583,0.244094,-0.015748,-0.338583,0.007874,-0.047244,0.149606,0.023622,-0.047244,-0.015748,-0.055118,-0.070866,0.11811,-0.015748,0.086614,-0.173228,-0.133858,0.086614,0.062992,0.015748,0.,0.07874,-0.188976,0.125984,0.086614,-0.149606,0.047244,0.055118,0.007874,-0.031496,0.007874,-0.047244,-0.031496,0.023622,-0.047244,0.047244,-0.007874,0.110236,-0.062992,0.070866,-0.07874,-0.023622,0.031496,0.,0.047244,-0.055118,-0.062992,-0.007874,-0.086614,-0.031496,0.070866,0.023622,-0.047244,0.03937,0.,-0.070866,-0.062992,0.023622,0.031496,-0.031496,-0.015748,0.03937,-0.19685,0.07874,0.,0.173228,-0.062992,0.047244,-0.03937,-0.031496,-0.007874,0.,-0.102362,-0.110236,0.03937,0.007874,-0.055118,0.047244,0.055118,-0.03937,-0.047244,0.188976,-0.094488,-0.086614,0.007874,0.149606,-0.047244,-0.125984,-0.055118,0.031496,0.086614,0.03937,-0.11811,-0.094488,0.11811,0.11811,0.393701,-0.370079,-0.19685,0.047244,0.047244,0.023622,-0.102362,0.031496,-0.070866,0.062992,0.023622,-0.070866,0.125984,-0.11811,0.062992,0.007874,-0.047244,0.,-0.07874,0.07874,0.007874,-0.03937,-0.070866,0.007874,0.055118,0.007874,-0.031496,-0.19685,-0.007874,0.094488,0.031496,0.007874,-0.133858,0.055118,-0.015748,-0.070866,-0.023622,-0.07874,0.15748,0.023622,-0.086614,-0.086614,0.062992,0.047244,-0.03937,0.007874,-0.031496,0.,-0.023622,-0.031496,-0.03937,-0.031496,0.070866,-0.03937,0.031496,-0.094488,0.070866,0.047244,0.015748,-0.062992,-0.023622,0.031496,-0.023622,-0.03937,0.03937,-0.047244,-0.062992,0.07874,-0.055118,-0.031496,0.062992,-0.03937,0.007874,-0.031496,0.031496,-0.015748,0.055118,-0.03937,-0.055118,-0.070866,0.007874,-0.031496,0.125984,0.086614,-0.102362,0.015748,-0.102362,0.062992,-0.03937,0.015748,-0.062992,-0.007874,-0.015748,-0.03937,-0.023622,-0.007874,0.031496,0.047244,0.07874,-0.070866,0.007874,0.031496,-0.062992,0.015748,-0.023622,0.015748,0.03937,-0.023622,0.,-0.007874,-0.03937,0.023622,0.023622,-0.062992,0.007874,0.047244,-0.023622,-0.047244,0.015748,0.007874,-0.055118,-0.031496,0.007874,0.023622,0.007874,0.031496,-0.055118,-0.007874,-0.047244,-0.015748,0.047244,0.007874,0.03937,-0.007874,-0.047244,-0.015748,-0.03937,-0.015748,-0.031496,0.015748,0.015748,0.,-0.055118,-0.055118,0.03937,-0.086614,-0.102362,0.03937,0.03937,0.15748,0.141732,-0.19685,-0.047244,-0.023622,-0.031496,-0.007874,0.023622,0.055118,-0.015748,0.015748,-0.03937,-0.055118,-0.015748,-0.031496,-0.023622,0.023622,0.070866,0.047244,-0.055118,-0.015748,-0.03937,0.015748,-0.015748,-0.015748,-0.007874,-0.062992,0.03937,-0.007874,0.023622,-0.031496,-0.03937,-0.023622,-0.023622,0.023622,0.055118,0.062992,-0.031496,-0.031496,0.,0.,0.007874,0.023622,-0.031496,-0.031496,-0.023622,0.031496,-0.07874,0.023622,0.031496,-0.023622,0.015748,0.,-0.023622,-0.062992,0.007874,-0.03937,-0.03937,0.023622,-0.007874,-0.047244,-0.055118,0.031496,-0.07874,0.047244,0.015748,0.062992,0.03937,-0.102362,0.015748,0.023622,0.015748,-0.007874,0.031496,0.047244,-0.023622,-0.055118,-0.047244,0.,-0.062992,0.070866,0.11811,-0.094488,0.031496,0.07874,-0.055118,-0.031496,-0.062992,-0.015748,0.070866,0.03937,-0.102362,0.007874,0.031496,-0.204724,0.11811,-0.023622,0.03937,-0.023622,-0.086614,-0.023622,0.031496,-0.094488,0.133858,-0.110236,0.086614,0.023622,-0.07874,0.086614,0.03937,0.007874,-0.047244,-0.023622,-0.23622,0.165354,-0.015748,-0.094488,0.031496,-0.11811,-0.125984,0.015748,-0.03937,-0.086614,0.291339,0.125984,-0.141732,0.094488,0.015748,-0.133858,-0.110236,-0.031496,0.086614,0.228346,0.007874,-0.149606,-0.173228,0.031496,-0.007874,-0.133858,-0.031496,0.07874,0.173228,0.338583,-0.377953,0.055118,0.023622,-0.055118,-0.188976,0.062992,-0.055118,0.03937,0.480315,-0.11811,-0.133858,-0.086614,0.007874,-0.094488,0.,0.,-0.425197,0.,0.204724,0.086614,0.590551,-0.346457,-0.267717,0.07874,0.086614,-0.094488,-0.23622,0.03937,0.015748,-0.110236,0.047244,0.204724,0.094488,0.11811,-0.244094,0.070866,-0.047244,-0.031496,-0.165354,-0.228346,0.023622,0.181102,0.244094,0.047244,-0.047244,-0.133858,-0.15748,0.,0.023622,0.141732,0.181102,-0.110236,-0.141732,0.094488,0.023622,-0.047244,-0.220472,0.094488,-0.007874,-0.204724,-0.086614,-0.047244,0.188976,0.149606,-0.181102,-0.023622,0.19685,-0.149606,0.267717,0.11811,-0.149606,-0.15748,-0.133858,-0.047244,-0.03937,-0.15748,-0.03937,0.007874,0.015748,0.598425,-0.385827,-0.055118,-0.062992,-0.070866,-0.425197,0.062992,-0.149606,-0.055118,0.417323,-0.125984,0.748031,-0.535433,0.244094,-0.385827,0.488189,-0.110236,-0.267717,0.19685,-0.015748,-0.047244,-0.425197,-0.259843,0.244094,-0.031496,0.795276,-0.15748,0.031496,-0.354331,0.220472,-0.393701,-0.055118,-0.181102,0.283465,0.566929,-0.346457,-0.141732,-0.244094,-0.11811,0.11811,0.125984,-0.062992,-0.19685,0.086614,0.700787,0.212598,-0.622047,0.244094,0.03937,0.259843,-0.102362,-0.173228,-0.070866,-0.19685,0.425197,-0.322835,-0.062992,0.385827,0.110236,-0.125984,0.165354,-0.165354,-0.653543,-0.11811,-0.023622,0.204724,0.417323,-0.740157,0.598425,0.086614,0.110236,-0.425197,-0.338583,-0.15748,0.314961,-0.401575,0.204724,-0.527559,0.433071,-0.897638,-0.125984,0.370079,-0.220472,0.141732,-0.480315,0.393701,-0.566929,0.566929,-0.275591,-0.330709,-0.110236,0.622047,0.212598,-0.866142,-0.204724,-0.007874,0.692913,-0.275591,-0.614173,0.023622,0.425197,-0.385827,0.440945,0.448819,-0.228346,0.535433,-0.291339,-0.590551,0.181102,0.503937,0.291339,-0.291339,-0.330709,0.11811,0.141732,-0.047244,-0.606299,-0.181102,0.23622,-0.559055,0.795276,-0.086614,0.204724,0.330709,-0.559055,-0.023622,-0.031496,-0.070866,-0.03937,-0.291339,0.,-0.015748,0.425197,0.370079,-0.314961,-0.015748,-0.125984,-0.055118,0.015748,-0.047244,-0.086614,0.086614,0.047244,-0.070866,0.094488,0.007874,0.,-0.204724,-0.133858,0.007874,0.212598,0.062992,-0.188976,0.07874,0.047244,-0.031496,-0.102362,-0.015748,-0.102362,0.125984,-0.086614,-0.07874,-0.070866,0.07874,0.03937,0.07874,0.047244,-0.244094,0.15748,0.,-0.047244,0.03937,-0.133858,0.07874,0.094488,-0.015748,0.,-0.102362,-0.094488,0.094488,0.11811,-0.062992,0.031496,0.015748,0.,0.133858,-0.354331,0.165354,0.007874,0.015748,-0.07874,0.023622,-0.062992,-0.094488,0.047244,-0.031496,0.149606,0.007874,-0.015748,-0.259843,0.047244,-0.086614,0.094488,-0.007874,0.03937,-0.031496,0.15748,0.070866,-0.173228,-0.094488,0.023622,0.047244,0.007874,0.023622,-0.165354,0.251969,-0.007874,-0.070866,0.062992,-0.15748,0.062992,0.070866,-0.11811,0.055118,0.141732,0.,-0.062992,-0.15748,-0.070866,0.15748,0.259843,-0.055118,-0.070866,-0.031496,0.,-0.110236,-0.07874,0.173228,-0.125984,-0.031496,0.15748,-0.102362,0.03937,0.015748,-0.283465,0.094488,0.007874,0.07874,0.,-0.007874,0.031496,-0.015748,0.007874,-0.299213,0.11811,0.007874,0.,0.031496,-0.007874,-0.023622,-0.023622,0.031496,0.023622,-0.047244,-0.015748,-0.015748,-0.062992,-0.023622,0.023622,-0.070866,0.047244,0.015748,0.031496,0.070866,-0.031496,-0.015748,-0.023622,0.031496,-0.062992,0.,0.031496,-0.055118,0.,-0.031496,-0.015748,0.031496,-0.007874,-0.03937,-0.055118,-0.03937,0.03937,0.023622,-0.03937,-0.007874,-0.086614,0.086614,0.070866,-0.102362,-0.023622,0.015748,0.023622,0.015748,0.,-0.015748,-0.047244,-0.007874,0.015748,0.007874,0.015748,-0.015748,0.,0.,-0.023622,-0.047244,0.,-0.015748,0.015748,0.047244,-0.015748,-0.055118,-0.023622,-0.007874,0.007874,0.,0.,0.007874,-0.015748,0.007874,0.,-0.015748,-0.023622,0.007874,-0.015748,0.015748,-0.03937,0.,0.,0.03937,-0.031496,0.,0.,0.,-0.015748,-0.015748,-0.007874,-0.023622,-0.015748,0.007874,0.,-0.007874,-0.015748,-0.015748,-0.031496,0.,-0.007874,-0.007874,-0.023622,0.,0.015748,0.015748,-0.023622,-0.007874,0.,-0.015748,-0.007874,0.007874,-0.015748,-0.007874,-0.047244,0.,-0.007874,0.015748,-0.007874,0.007874,0.023622,0.03937,-0.007874,-0.070866,-0.047244,-0.062992,0.055118,0.015748,-0.007874,-0.03937,0.,0.023622,-0.015748,0.015748,0.,0.,-0.047244,0.023622,0.,0.007874,-0.007874,-0.031496,-0.007874,0.031496,-0.031496,-0.007874,-0.015748,-0.086614,0.03937,0.015748,-0.007874,-0.023622,0.062992,0.03937,-0.023622,-0.023622,-0.094488,-0.055118,0.07874,-0.031496,0.031496,-0.055118,-0.015748,0.,-0.03937,0.023622,0.023622,0.03937,-0.086614,-0.055118,0.007874,-0.047244,0.055118,-0.070866,-0.03937,0.047244,0.031496,0.055118,-0.03937,-0.086614,-0.023622,0.047244,0.015748,0.,-0.062992,-0.015748,-0.015748,0.031496,-0.03937,-0.086614,-0.023622,-0.015748,0.11811,0.03937,-0.062992,-0.03937,-0.031496,-0.031496,0.03937,-0.023622,-0.023622,0.055118,0.007874,-0.023622,0.047244,0.007874,0.,-0.007874,-0.015748,-0.062992,-0.047244,0.,0.,0.007874,0.102362,0.015748,-0.062992,0.015748,-0.023622,-0.03937,0.110236,0.023622,-0.031496,-0.110236,0.110236,0.,-0.015748,-0.007874,-0.110236,-0.007874,-0.062992,0.070866,0.102362,-0.102362,-0.141732,0.031496,0.,0.031496,-0.031496,0.220472,0.007874,-0.141732,0.031496,0.023622,-0.023622,-0.055118,0.023622,-0.031496,-0.015748,-0.015748,-0.062992,0.047244,0.03937,0.094488,-0.062992,-0.023622,0.,0.047244,0.181102,-0.149606,-0.133858,-0.11811,-0.188976,-0.031496,0.251969,0.15748,0.149606,0.03937,-0.377953,0.015748,-0.086614,-0.007874,0.086614,0.03937,-0.015748,-0.102362,-0.149606,-0.055118,0.181102,-0.07874,-0.023622,-0.141732,0.086614,0.11811,0.007874,0.149606,-0.094488,0.007874,-0.023622,-0.070866,0.015748,0.,-0.023622,0.031496,-0.031496,0.015748,-0.165354,-0.15748,-0.055118,0.,0.141732,-0.055118,0.173228,-0.070866,-0.047244,0.,-0.070866,0.188976,-0.11811,-0.062992,0.070866,0.03937,-0.047244,-0.070866,-0.055118,0.062992,0.031496,0.047244,-0.181102,0.047244,0.031496,0.11811,-0.03937,-0.015748,-0.125984,-0.094488,-0.015748,0.023622,-0.15748,0.094488,0.055118,-0.15748,0.03937,0.377953,-0.362205,-0.228346,0.047244,0.102362,0.708661,-0.086614,0.102362,0.,-0.086614,-0.228346,0.031496,0.259843,0.031496,-0.275591,-0.354331,0.212598,0.007874,0.551181,-0.11811,-0.125984,0.062992,-0.070866,-0.606299,0.03937,0.094488,0.070866,0.692913,-0.433071,-0.393701,0.244094,-0.314961,-0.330709,-0.181102,0.244094,0.110236,-0.07874,0.086614,-0.417323,0.795276,-0.149606,-0.133858,-0.188976,-0.062992,0.023622,-0.19685,-0.023622,-0.007874,0.472441,0.259843,-0.417323,-0.173228,-0.070866,-0.015748,0.141732,0.173228,-0.102362,-0.23622,0.070866,0.055118,0.110236,-0.062992,-0.291339,0.094488,0.110236,0.007874,0.165354,-0.346457,0.03937,0.007874,-0.023622,0.188976,-0.354331,0.007874,-0.055118,-0.377953,0.055118,0.212598,0.559055,-0.070866,-0.425197,-0.070866,-0.110236,0.464567,-0.03937,-0.259843,0.015748,0.102362,-0.212598,0.330709,0.102362,-0.102362,-0.007874,-0.165354,0.173228,-0.259843,0.070866,-0.062992,-0.055118,-0.188976,-0.149606,0.779528,0.086614,-0.464567,0.110236,0.204724,0.07874,-0.629921,0.19685,-0.047244,-0.393701,-0.322835,-0.850394,-0.448819,0.031496,0.629921,0.377953,0.330709,-0.015748,0.692913,0.551181,-0.464567,-0.19685,0.307087,-0.055118,-0.275591,0.11811,-0.15748,0.055118,-0.015748,-0.007874,-0.03937,-0.023622,0.031496,0.055118,0.015748,-0.047244,0.015748,-0.23622,0.188976,0.055118,-0.086614,0.023622,-0.055118,-0.047244,-0.047244,-0.07874,0.023622,0.062992,0.023622,0.031496,0.015748,-0.220472,0.188976,-0.062992,0.070866,-0.070866,-0.070866,0.031496,0.023622,0.015748,-0.03937,-0.023622,-0.086614,0.055118,0.015748,0.047244,-0.062992,0.007874,-0.047244,0.062992,0.007874,-0.007874,0.007874,-0.03937,0.031496,0.047244,-0.070866,0.,0.055118,-0.07874,-0.086614,0.,0.015748,0.070866,0.070866,-0.102362,-0.125984,0.015748,0.07874,-0.062992,0.015748,-0.102362,0.062992,0.023622,-0.023622,0.007874,-0.086614,0.015748,0.070866,0.007874,0.,-0.047244,-0.015748,-0.023622,0.03937,0.220472,0.133858,-0.110236,-0.291339,-0.047244,0.,0.047244,-0.094488,-0.055118,0.070866,0.110236,-0.165354,0.,0.110236,-0.070866,0.251969,-0.11811,-0.15748,-0.102362,0.094488,0.03937,-0.07874,0.047244,0.023622,0.007874,0.047244,0.,-0.062992,0.094488,-0.141732,0.015748,0.110236,-0.125984,-0.015748,0.023622,-0.007874,0.055118,-0.070866,0.047244,0.,-0.047244,-0.031496,-0.007874,-0.070866,0.062992,0.007874,-0.023622,-0.055118,0.015748,-0.015748,0.047244,-0.015748,-0.070866,-0.007874,0.047244,0.047244,0.015748,-0.023622,-0.055118,0.023622,0.007874,-0.007874,0.015748,-0.007874,0.007874,0.,-0.047244,-0.031496,0.023622,-0.007874,-0.007874,-0.03937,0.,-0.047244,0.015748,-0.015748,-0.023622,-0.015748,0.,0.007874,-0.03937,0.03937,0.015748,0.102362,-0.094488,-0.007874,0.007874,-0.015748,-0.03937,-0.007874,-0.047244,0.007874,-0.023622,0.,-0.007874,0.,0.,-0.023622,0.007874,-0.015748,0.110236,-0.007874,-0.055118,0.015748,-0.007874,-0.03937,0.007874,-0.015748,-0.023622,-0.031496,0.023622,-0.023622,-0.031496,0.023622,-0.007874,0.,-0.015748,-0.062992,0.,-0.015748,0.03937,-0.031496,0.015748,-0.007874,0.,0.015748,0.007874,0.,0.007874,0.007874,-0.070866,-0.007874,0.031496,0.,0.007874,0.,-0.094488,0.094488,0.055118,0.031496,-0.07874,-0.031496,-0.102362,-0.023622,0.015748,0.007874,0.062992,-0.007874,-0.015748,-0.070866,0.047244,-0.047244,-0.007874,0.070866,0.062992,0.031496,-0.11811,-0.007874,-0.015748,0.094488,0.047244,0.047244,-0.23622,-0.03937,-0.070866,-0.094488,0.047244,-0.023622,0.173228,-0.086614,-0.031496,0.03937,-0.094488,0.,-0.031496,-0.031496,0.062992,-0.015748,-0.055118,0.007874,0.047244,-0.031496,0.086614,-0.181102,0.062992,0.007874,0.055118,-0.055118,0.007874,0.11811,-0.07874,-0.031496,0.,-0.031496,0.023622,0.015748,-0.023622,-0.023622,0.015748,0.,-0.03937,0.070866,-0.03937,-0.086614,-0.023622,0.023622,0.031496,0.031496,-0.125984,0.047244,-0.055118,0.125984,0.062992,-0.11811,0.015748,-0.110236,0.023622,0.007874,0.031496,0.055118,-0.047244,-0.086614,-0.03937,-0.023622,0.031496,0.023622,-0.047244,0.007874,-0.023622,0.047244,-0.007874,-0.047244,0.015748,0.015748,-0.07874,-0.062992,-0.055118,0.03937,0.007874,0.086614,-0.047244,0.031496,-0.047244,0.07874,-0.062992,-0.110236,0.110236,0.023622,-0.015748,-0.03937,0.015748,-0.031496,-0.023622,-0.03937,-0.03937,-0.007874,-0.070866,-0.086614,-0.023622,-0.133858,0.212598,0.11811,-0.047244,-0.055118,0.086614,0.062992,0.007874,-0.03937,0.031496,0.023622,0.086614,-0.015748,-0.165354,-0.023622,0.023622,0.149606,-0.165354,0.,0.110236,0.031496,0.062992,0.015748,-0.212598,0.149606,0.015748,-0.086614,0.086614,-0.173228,0.,0.070866,0.023622,0.023622,0.125984,-0.291339,-0.023622,-0.070866,0.275591,-0.055118,0.007874,-0.11811,0.110236,-0.220472,-0.11811,-0.070866,0.181102,0.401575,-0.251969,0.283465,-0.338583,-0.094488,-0.070866,-0.228346,0.015748,0.03937,0.307087,-0.015748,-0.055118,0.125984,0.062992,-0.070866,-0.188976,0.086614,-0.023622,0.110236,-0.031496,-0.165354,-0.062992,-0.055118,0.007874,0.173228,-0.055118,-0.181102,-0.19685,-0.03937,0.15748,0.409449,0.031496,-0.19685,-0.047244,0.031496,-0.181102,-0.062992,0.047244,0.102362,0.15748,0.125984,-0.11811,-0.133858,-0.047244,0.086614,-0.062992,0.015748,-0.03937,0.086614,-0.086614,0.023622,0.007874,0.,-0.212598,0.,0.275591,-0.23622,0.299213,-0.19685,-0.007874,0.047244,-0.165354,0.007874,0.,0.07874,0.015748,-0.149606,-0.086614,0.070866,0.165354,0.149606,0.,-0.149606,-0.11811,-0.125984,-0.133858,0.023622,0.102362,0.425197,0.094488,-0.433071,-0.141732,0.007874,0.125984,-0.11811,-0.346457,-0.133858,0.244094,0.094488,0.11811,-0.165354,-0.094488,0.346457,0.19685,-0.19685,-0.141732,0.102362,0.133858,-0.385827,-0.086614,0.212598,0.015748,0.047244,0.062992,-0.19685,0.031496,0.047244,-0.141732,0.251969,0.086614,-0.244094,-0.259843,0.007874,0.267717,0.259843,-0.11811,-0.181102,0.086614,-0.031496,-0.283465,-0.047244,0.11811,0.07874,0.314961,0.165354,-0.283465,-0.19685,0.15748,-0.007874,-0.125984,0.086614,-0.244094,-0.440945,0.102362,-0.094488,0.275591,0.543307,-0.259843,0.23622,0.141732,-0.165354,-0.070866,-0.149606,0.03937,-0.023622,0.110236,-0.062992,-0.15748,-0.015748,-0.07874,0.19685,-0.346457,0.062992,0.228346,0.07874,-0.204724,0.212598,-0.228346,0.070866,-0.133858,0.03937,-0.141732,0.055118,-0.259843,-0.267717,0.141732,-0.110236,0.314961,0.173228,-0.165354,0.03937,-0.11811,-0.149606,-0.015748,0.181102,0.251969,0.149606,-0.275591,-0.007874,-0.047244,0.125984,-0.031496,0.03937,-0.425197,-0.149606,0.149606,0.385827,0.259843,-0.291339,-0.015748,0.031496,0.165354,0.031496,-0.094488,0.086614,-0.015748,0.11811,-0.283465,0.062992,-0.086614,0.094488,-0.228346,-0.755906,0.401575,-0.228346,1.,-0.755906,0.259843,-0.007874,0.086614,0.661417,-0.330709,-0.748031,-0.015748,0.23622,0.275591,0.480315,-0.480315,-0.070866,-0.015748,-0.07874,0.15748,-0.212598,0.047244,0.03937,-0.031496,0.070866,-0.133858,0.031496,-0.062992,-0.007874,0.031496,0.110236,-0.023622,-0.023622,-0.110236,-0.173228,0.299213,-0.023622,0.047244,-0.055118,0.047244,-0.023622,-0.275591,0.181102,0.007874,0.007874,0.094488,-0.094488,0.070866,-0.031496,-0.007874,-0.015748,-0.070866,0.047244,-0.110236,0.,-0.322835,0.125984,0.11811,0.015748,-0.023622,-0.102362,0.141732,-0.015748,-0.031496,0.031496,0.015748,-0.094488,0.070866,0.007874,0.023622,-0.141732,0.023622,-0.031496,-0.094488,0.070866,-0.102362,-0.102362,0.047244,0.062992,0.094488,0.062992,-0.055118,-0.031496,0.094488,0.149606,-0.181102,-0.15748,0.070866,-0.094488,-0.07874,-0.023622,0.007874,0.070866,-0.19685,-0.102362,0.141732,-0.007874,-0.023622,0.125984,-0.070866,-0.070866,-0.125984,0.007874,0.110236,-0.204724,0.283465,0.03937,-0.070866,-0.031496,0.,0.007874,-0.338583,0.007874,0.259843,0.094488,-0.007874,0.,0.007874,-0.03937,0.047244,-0.204724,0.023622,0.062992,-0.125984,0.244094,-0.102362,-0.047244,0.047244,0.007874,-0.015748,0.015748,0.062992,-0.023622,0.,-0.023622,-0.047244,-0.031496,0.047244,-0.07874,0.007874,-0.031496,0.03937,-0.031496,0.015748,-0.007874,0.031496,0.055118,-0.015748,-0.023622,0.007874,0.031496,-0.070866,0.03937,-0.07874,0.031496,-0.070866,0.141732,0.031496,-0.055118,0.007874,0.015748,-0.03937,0.055118,-0.047244,-0.086614,0.086614,0.007874,-0.015748,0.07874,-0.07874,-0.023622,0.,0.007874,0.015748,-0.062992,0.015748,-0.047244,0.015748,-0.062992,-0.047244,0.015748,0.007874,-0.023622,0.062992,-0.141732,0.,0.015748,0.03937,0.047244,-0.102362,-0.007874,-0.007874,-0.015748,-0.007874,-0.023622,-0.007874,0.03937,-0.070866,0.,0.023622,-0.015748,-0.007874,-0.007874,-0.007874,0.023622,-0.055118,0.015748,-0.007874,-0.007874,0.023622,-0.015748,-0.062992,-0.007874,-0.031496,0.03937,-0.015748,0.047244,0.007874,-0.007874,0.,-0.03937,0.015748,-0.015748,0.070866,-0.055118,0.015748,-0.062992,0.023622,-0.023622,0.015748,-0.023622,0.062992,-0.007874,-0.07874,0.007874,-0.031496,-0.007874,0.047244,-0.062992,-0.055118,-0.023622,0.03937,0.031496,-0.023622,0.031496,-0.055118,-0.015748,-0.015748,-0.007874,-0.023622,0.07874,-0.070866,-0.015748,-0.023622,0.,0.007874,-0.055118,-0.023622,-0.055118,0.007874,0.031496,-0.047244,0.11811,0.015748,-0.03937,0.133858,-0.070866,-0.015748,-0.023622,-0.031496,-0.007874,-0.031496,0.015748,0.03937,-0.015748,-0.055118,0.,-0.007874,-0.023622,-0.007874,-0.007874,-0.007874,-0.023622,0.,-0.031496,0.015748,-0.055118,0.047244,0.,-0.031496,0.015748,0.023622,0.015748,-0.023622,-0.015748,0.015748,-0.031496,0.023622,0.015748,-0.055118,0.015748,-0.007874,-0.015748,-0.023622,-0.015748,-0.007874,-0.023622,-0.023622,0.007874,-0.015748,0.047244,0.015748,0.007874,-0.047244,0.,-0.023622,-0.023622,-0.031496,0.007874,-0.007874,0.023622,-0.055118,-0.007874,0.,-0.015748,0.023622,0.023622,0.,0.,0.007874,-0.015748,0.,0.,0.007874,0.015748,-0.031496,0.031496,-0.03937,0.031496,-0.015748,-0.007874,-0.03937,0.023622,0.031496,-0.023622,-0.007874,0.,-0.031496,0.031496,0.,0.03937,-0.031496,0.,0.007874,0.015748,-0.023622,-0.03937,0.03937,-0.047244,-0.007874,-0.07874,-0.047244,-0.047244,0.007874,-0.015748,0.047244,-0.062992,-0.023622,-0.007874,-0.015748,-0.03937,0.031496,0.007874,-0.031496,0.023622,-0.015748,0.015748,0.023622,-0.007874,-0.007874,0.,-0.023622,-0.023622,-0.015748,-0.015748,-0.007874,-0.023622,0.031496,-0.07874,0.015748,-0.031496,0.031496,0.023622,-0.031496,0.03937,0.03937,0.047244,-0.015748,-0.015748,-0.055118,-0.023622,0.031496,-0.015748,-0.031496,0.,-0.03937,0.023622,0.015748,0.015748,0.031496,-0.047244,-0.047244,-0.015748,0.031496,0.03937,-0.03937,0.023622,0.007874,-0.023622,-0.047244,0.031496,0.023622,-0.015748,-0.110236,0.023622,-0.007874,0.055118,0.031496,0.03937,0.031496,-0.031496,0.015748,-0.086614,-0.094488,-0.102362,0.031496,0.031496,-0.007874,-0.007874,0.,-0.062992,0.015748,-0.086614,0.047244,-0.023622,-0.07874,0.086614,-0.047244,-0.125984,-0.031496,-0.047244,0.070866,0.07874,0.047244,-0.03937,0.023622,0.047244,-0.03937,-0.086614,-0.023622,0.015748,0.,-0.015748,-0.062992,-0.031496,-0.023622,0.031496,0.03937,0.007874,0.,-0.086614,0.,0.,-0.015748,0.149606,-0.023622,-0.070866,0.03937,-0.031496,0.007874,-0.015748,-0.023622,-0.047244,0.023622,-0.023622,0.062992,-0.015748,-0.015748,0.007874,-0.062992,-0.023622,0.047244,0.007874,0.007874,-0.03937,0.031496,-0.015748,-0.015748,0.007874,-0.023622,0.,0.055118,-0.047244,-0.023622,-0.007874,-0.102362,0.188976,-0.055118,-0.023622,0.007874,-0.015748,0.03937,0.,-0.055118,0.007874,-0.047244,-0.015748,0.015748,-0.023622,0.015748,0.,0.007874,-0.086614,0.015748,-0.007874,0.007874,0.047244,-0.102362,-0.007874,-0.015748,0.03937,-0.015748,-0.015748,-0.007874,0.007874,0.,0.015748,-0.031496,0.,0.,-0.015748,-0.015748,-0.023622,-0.015748,-0.023622,-0.023622,0.007874,0.047244,0.047244,-0.062992,-0.031496,0.007874,-0.015748,-0.023622,0.023622,0.,-0.007874,-0.03937,-0.055118,-0.03937,0.023622,-0.023622,0.07874,-0.031496,0.,0.047244,-0.07874,-0.015748,-0.03937,0.055118,0.,-0.03937,-0.007874,0.007874,-0.015748,0.023622,0.023622,-0.015748,-0.031496,0.015748,0.023622,-0.015748,-0.015748,0.007874,-0.031496,-0.023622,-0.007874,-0.047244,0.,0.015748,0.055118,0.007874,-0.047244,0.047244,-0.023622,0.007874,-0.070866,0.,-0.015748,0.,0.007874,-0.007874,0.015748,-0.023622,0.007874,0.,-0.023622,0.,0.,0.,0.015748,-0.015748,-0.015748,-0.007874,0.015748,0.007874,-0.023622,-0.007874,0.031496,-0.007874,-0.015748,-0.055118,-0.031496,-0.055118,-0.102362,-0.133858,-0.133858,-0.007874,0.07874,0.181102,0.031496,0.007874,-0.007874,-0.015748,0.,-0.007874,0.015748,0.015748,0.007874,-0.015748,0.015748,-0.015748,-0.023622,-0.015748,0.007874,0.,0.,0.,-0.007874,-0.007874,0.,-0.007874,-0.015748,-0.007874,-0.007874,-0.015748,0.,0.007874,0.,0.007874,-0.015748,-0.031496,-0.007874,-0.015748,-0.015748,0.,0.,-0.007874,-0.015748,0.,-0.031496,0.,0.007874,0.007874,0.015748,-0.007874,-0.015748,-0.007874,0.015748,0.015748,0.,-0.015748,-0.007874,-0.007874,0.,0.007874,-0.007874,0.,-0.007874,-0.023622,-0.023622,0.007874,-0.015748,-0.007874,-0.031496,-0.007874,-0.007874,-0.007874,0.007874,0.,-0.015748,0.,0.007874,-0.023622,0.,-0.023622,-0.007874,-0.015748,-0.015748,0.,-0.007874,-0.023622,-0.007874,0.,0.,0.007874,-0.023622,0.,0.,0.,0.031496,-0.03937,-0.023622,-0.007874,-0.007874,-0.007874,0.,-0.015748,0.007874,-0.007874,0.015748,-0.015748,0.,0.,0.007874,-0.007874,-0.015748,0.007874,0.,0.007874,0.,0.007874,-0.023622,-0.015748,-0.007874,-0.007874,-0.007874,-0.007874,-0.015748,0.,-0.007874,-0.007874,0.,-0.015748,-0.015748,-0.015748,-0.015748,0.,-0.015748,-0.007874,0.,-0.015748,-0.015748,-0.015748,-0.007874,-0.015748,-0.007874,-0.007874,-0.015748,0.,-0.007874,-0.007874,-0.015748,0.007874,-0.007874,0.015748,0.007874,-0.007874,-0.007874,0.007874,-0.023622,0.007874,-0.015748,-0.023622,-0.015748,-0.015748,0.,-0.007874,0.,0.015748,-0.007874,-0.007874,0.,-0.023622,0.,-0.031496,-0.015748,0.,-0.007874,-0.015748,-0.015748,-0.007874,0.,0.015748,0.007874,0.015748,0.,-0.007874,0.007874,-0.015748,0.,-0.007874,0.,-0.007874,0.,-0.007874,-0.007874,-0.031496,0.,0.007874,0.007874,-0.023622,-0.03937,-0.015748,-0.023622,0.,0.007874,0.015748,-0.015748,-0.007874,0.,-0.015748,-0.015748,0.,0.,0.023622,0.,0.015748,-0.007874,-0.015748,0.007874,-0.015748,-0.023622,-0.007874,0.015748,-0.015748,-0.007874,0.,-0.015748,-0.023622,0.,-0.007874,-0.015748,-0.015748,0.,0.007874,-0.015748,-0.015748,0.007874,-0.007874,-0.007874,0.007874,0.,-0.015748,0.,0.,0.,-0.015748,-0.023622,-0.007874,-0.007874,0.,0.015748,-0.015748,-0.023622,-0.015748,-0.007874,0.007874,-0.023622,0.,0.,-0.015748,-0.023622,-0.015748,-0.007874,-0.015748,0.,0.015748,-0.007874,0.007874,-0.015748,-0.031496,0.,0.,0.,-0.007874,-0.015748,0.,-0.007874,-0.007874,-0.007874,-0.007874,0.007874,0.007874,-0.015748,-0.007874,-0.023622,0.015748,0.,0.007874,-0.015748,-0.015748,-0.015748,0.,0.,-0.015748,-0.007874,-0.007874,-0.007874,-0.015748,-0.015748,-0.007874,0.,-0.023622,0.,-0.007874,0.015748,-0.007874,-0.023622,-0.015748,0.,0.007874,0.023622,0.007874,-0.023622,-0.023622,-0.007874,-0.015748,0.007874,0.015748,0.,-0.007874,-0.007874,0.,0.,-0.031496,-0.031496,-0.007874,0.,0.,0.007874,-0.015748,0.007874,-0.015748,0.,-0.031496,-0.031496,0.,-0.031496,0.,-0.015748,-0.007874,0.,0.,-0.031496,-0.015748,0.007874,0.,0.015748,-0.015748,0.023622,-0.015748,-0.007874,-0.023622,-0.023622,0.007874,0.,-0.007874,-0.007874,-0.007874,-0.007874,-0.015748,-0.007874,-0.007874,0.,0.015748,-0.015748,0.,-0.023622,-0.015748,-0.007874,-0.007874,-0.015748,-0.015748,-0.007874,0.015748,0.015748,-0.015748,-0.007874,-0.031496,-0.007874,0.007874,-0.007874,-0.015748,-0.015748,0.,-0.015748,-0.007874,0.007874,0.,-0.007874,-0.007874,-0.007874,-0.007874,0.,0.023622,-0.007874,-0.015748,-0.015748,-0.023622,-0.015748,0.015748,0.007874,0.,-0.015748,0.007874,-0.007874,-0.023622,-0.031496,-0.023622,-0.007874,0.,0.007874,0.007874,0.015748,-0.015748,0.,0.007874,-0.007874,0.,-0.015748,-0.015748,-0.031496,-0.007874,0.,-0.015748,0.007874,0.,0.007874,-0.015748,0.,-0.015748,-0.007874,0.015748,0.,-0.015748,-0.007874,0.,-0.023622,-0.03937,-0.015748,-0.031496,0.023622,0.023622,-0.007874,0.,-0.007874,0.007874,-0.007874,-0.007874,-0.015748,-0.007874,0.007874,-0.007874,-0.023622,-0.015748,0.,0.,-0.023622,0.007874,0.007874,-0.015748,-0.023622,-0.007874,-0.03937,0.007874,-0.007874,-0.023622,-0.023622,0.015748,0.031496,0.055118,-0.007874,-0.031496,-0.015748,-0.015748,-0.007874,0.007874,-0.015748,0.007874,-0.007874,0.007874,-0.007874,0.023622,-0.007874,0.007874,-0.031496,0.007874,0.007874,-0.007874,-0.031496,-0.015748,-0.007874,0.007874,0.070866,-0.062992,0.,-0.086614,0.047244,-0.03937,-0.007874,-0.023622,0.007874,-0.023622,0.,0.023622,-0.007874,0.,-0.007874,0.,0.,0.,0.,-0.023622,-0.007874,-0.007874,-0.031496,-0.03937,0.023622,-0.015748,0.,0.023622,0.,0.023622,-0.015748,-0.015748,-0.007874,0.015748,-0.015748,-0.070866,0.031496,0.031496,-0.007874,0.015748,0.031496,-0.031496,0.,0.,0.03937,-0.055118,0.,-0.015748,-0.007874,-0.031496,0.015748,-0.031496,-0.086614,0.055118,0.007874,0.19685,-0.062992,-0.023622,-0.031496,-0.086614,-0.094488,0.007874,0.031496,0.007874,-0.023622,-0.015748,0.015748,0.007874,-0.007874,-0.023622,-0.07874,0.031496,-0.007874,-0.015748,-0.007874,0.007874,-0.015748,0.,-0.023622,-0.062992,0.023622,-0.03937,0.023622,0.007874,-0.031496,0.015748,0.,0.023622,-0.023622,0.007874,-0.047244,0.,-0.03937,0.007874,-0.031496,0.015748,-0.015748,0.047244,0.,-0.062992,0.023622,0.070866,-0.055118,0.03937,0.031496,-0.031496,-0.031496,0.023622,0.023622,-0.031496,-0.094488,0.03937,-0.070866,0.062992,-0.023622,-0.181102,0.15748,-0.007874,0.15748,-0.055118,-0.03937,-0.015748,-0.031496,-0.047244,-0.007874,-0.07874,0.047244,-0.015748,-0.023622,-0.03937,0.062992,-0.086614,0.,-0.015748,0.062992,-0.055118,-0.023622,-0.023622,0.07874,-0.07874,-0.015748,0.086614,-0.031496,0.047244,-0.094488,-0.015748,0.03937,-0.070866,0.015748,-0.015748,0.086614,-0.141732,0.015748,0.062992,-0.03937,0.11811,-0.007874,-0.015748,-0.11811,0.11811,-0.015748,-0.023622,0.07874,0.094488,-0.086614,-0.094488,-0.244094,0.165354,0.11811,-0.023622,0.007874,-0.259843,0.,0.11811,-0.094488,0.007874,0.,0.,0.110236,-0.007874,-0.15748,0.031496,0.023622,0.007874,0.,-0.007874,-0.015748,0.086614,-0.070866,-0.102362,0.03937,0.047244,-0.015748,-0.165354,0.007874,0.023622,0.204724,0.125984,-0.125984,-0.149606,-0.031496,0.031496,0.031496,-0.07874,0.03937,0.015748,-0.015748,-0.055118,-0.007874,-0.023622,-0.055118,-0.110236,-0.086614,0.031496,-0.031496,0.322835,0.141732,-0.15748,-0.055118,-0.007874,0.070866,-0.070866,-0.03937,-0.015748,0.015748,0.,-0.07874,-0.11811,0.055118,0.007874,0.19685,0.086614,-0.086614,-0.07874,-0.055118,0.007874,-0.031496,-0.015748,0.031496,-0.015748,0.094488,-0.055118,0.03937,-0.094488,-0.070866,0.007874,0.007874,0.188976,-0.086614,-0.070866,0.086614,0.023622,0.,-0.228346,0.133858,0.03937,-0.007874,0.015748,0.094488,-0.031496,0.070866,-0.031496,-0.102362,-0.267717,-0.204724,-0.291339,0.031496,0.007874,0.251969,0.291339,-0.15748,-0.062992,0.047244,0.519685,0.007874,-0.102362,-0.110236,-0.125984,-0.23622,-0.062992,0.055118,-0.015748,-0.125984,0.07874,-0.055118,0.125984,0.094488,0.,-0.165354,-0.070866,-0.03937,-0.047244,-0.007874,0.062992,0.007874,0.338583,-0.023622,-0.133858,-0.149606,-0.007874,0.102362,-0.023622,0.173228,-0.291339,-0.047244,0.007874,-0.047244,0.007874,0.047244,-0.181102,0.086614,0.173228,-0.047244,0.094488,-0.125984,0.015748,-0.062992,0.023622,-0.102362,0.015748,0.03937,-0.173228,0.314961,0.11811,-0.086614,0.03937,-0.07874,0.,-0.031496,-0.023622,0.15748,-0.094488,0.015748,-0.086614,0.062992,0.086614,-0.133858,-0.19685,0.007874,0.11811,0.346457,-0.322835,0.047244,-0.055118,-0.055118,0.047244,0.307087,-0.212598,0.062992,-0.141732,0.488189,-0.385827,0.11811,-0.228346,0.23622,-0.094488,-0.03937,-0.047244,0.181102,-0.480315,0.204724,-0.275591,-0.07874,-0.795276,0.110236,0.125984,-0.732283,0.818898,-0.527559,0.472441,-0.086614,0.047244,0.456693,0.850394,-0.582677,0.566929,-0.692913,0.188976,-0.283465,0.244094,-0.03937,-0.181102,-0.007874,-0.110236,0.086614,-0.031496,-0.055118,0.086614,-0.07874,0.,-0.03937,0.007874,0.015748,0.015748,0.070866,-0.031496,-0.015748,-0.07874,0.03937,-0.133858,0.07874,0.007874,0.,0.,-0.031496,-0.055118,-0.007874,0.,-0.007874,0.031496,0.007874,-0.047244,0.03937,0.,-0.204724,0.125984,-0.062992,-0.047244,0.133858,-0.007874,-0.086614,0.055118,0.11811,-0.015748,-0.015748,-0.062992,-0.03937,-0.070866,0.047244,0.149606,0.070866,0.055118,0.007874,-0.299213,0.007874,-0.047244,0.07874,0.11811,-0.141732,-0.015748,-0.07874,0.055118,-0.015748,0.007874,-0.165354,-0.062992,-0.047244,0.165354,0.188976,0.023622,0.133858,-0.055118,0.047244,-0.133858,0.015748,-0.023622,0.062992,0.047244,-0.062992,-0.055118,-0.070866,0.094488,-0.015748,0.031496,0.,-0.094488,0.055118,-0.023622,-0.015748,-0.062992,-0.015748,-0.03937,-0.086614,0.047244,0.,0.031496,-0.062992,-0.047244,0.031496,-0.047244,-0.007874,0.,-0.007874,0.023622,-0.007874,0.,-0.03937,0.,0.015748,-0.031496,0.,-0.007874,-0.007874,-0.015748,-0.015748,-0.023622,-0.015748,0.,-0.015748,0.086614,-0.055118,0.031496,-0.047244,-0.055118,0.047244,0.,0.023622,-0.015748,-0.023622,-0.007874,-0.015748,-0.015748,0.007874,-0.031496,0.,0.007874,-0.015748,0.015748,-0.031496,-0.015748,0.031496,0.062992,-0.007874,-0.023622,-0.031496,-0.031496,0.,-0.031496,-0.015748,0.031496,-0.015748,0.031496,0.,-0.015748,0.,0.007874,-0.03937,-0.007874,-0.015748,0.,0.015748,-0.023622,0.015748,0.015748,0.031496,-0.023622,-0.047244,0.,0.,0.,-0.007874,-0.015748,0.007874,0.015748,-0.031496,-0.03937,0.007874,0.047244,0.007874,-0.047244,-0.070866,-0.023622,0.031496,0.031496,-0.03937,0.023622,-0.015748,0.,-0.047244,0.015748,0.015748,-0.015748,0.007874,-0.031496,0.007874,-0.015748,-0.007874,0.015748,-0.062992,-0.031496,0.047244,0.094488,0.007874,-0.11811,0.023622,-0.07874,0.023622,-0.023622,0.031496,-0.086614,0.023622,-0.03937,0.,0.023622,0.110236,-0.007874,-0.007874,-0.031496,-0.19685,0.220472,-0.070866,0.047244,0.023622,-0.015748,0.031496,0.070866,0.,-0.031496,-0.133858,0.031496,-0.007874,0.007874,0.007874,0.047244,0.094488,-0.070866,0.11811,0.03937,-0.188976,-0.023622,0.047244,-0.047244,-0.070866,-0.007874,0.047244,-0.03937,-0.03937,-0.055118,-0.055118,-0.055118,-0.023622,0.007874,-0.062992,-0.015748,-0.031496,0.047244,-0.055118,-0.165354,0.204724,-0.007874,-0.188976,0.031496,0.,-0.055118,0.220472,-0.19685,0.086614,0.,0.102362,0.03937,-0.03937,-0.11811,-0.055118,0.,-0.062992,0.086614,-0.031496,0.015748,0.023622,0.149606,-0.062992,0.070866,-0.283465,-0.062992,-0.181102,0.212598,0.023622,0.015748,0.047244,0.062992,0.070866,-0.031496,0.,-0.094488,0.015748,0.070866,-0.125984,-0.031496,0.047244,0.086614,0.244094,-0.19685,-0.062992,-0.055118,-0.047244,0.062992,0.149606,-0.149606,0.03937,-0.102362,-0.007874,0.086614,-0.03937,-0.110236,0.031496,-0.007874,0.07874,0.102362,-0.094488,-0.102362,0.,0.,0.023622,-0.086614,-0.094488,-0.055118,0.070866,0.220472,-0.047244,0.062992,-0.047244,-0.070866,-0.007874,0.007874,0.03937,-0.031496,-0.055118,0.,0.047244,-0.086614,0.023622,-0.015748,0.055118,-0.047244,-0.086614,-0.03937,-0.047244,0.023622,0.181102,-0.03937,-0.125984,-0.062992,-0.023622,0.015748,0.125984,-0.055118,-0.133858,0.023622,0.165354,-0.15748,-0.11811,0.070866,0.086614,-0.133858,0.062992,0.165354,0.110236,-0.173228,0.15748,-0.212598,0.062992,-0.377953,-0.559055,-0.409449,0.19685,0.370079,0.740157,0.007874,-0.692913,0.645669,-0.094488,0.102362,-0.283465,0.346457,-0.212598,-0.244094,0.173228,0.125984,-0.181102,-0.070866,0.086614,0.094488,-0.125984,-0.11811,0.062992,-0.03937,0.03937,-0.370079,-0.425197,0.11811,0.220472,0.598425,0.11811,-0.637795,-0.03937,0.251969,0.062992,-0.220472,-0.070866,-0.031496,-0.047244,-0.023622,-0.07874,0.102362,-0.125984,-0.181102,0.346457,0.141732,-0.07874,0.267717,-0.251969,-0.047244,-0.007874,0.031496,0.173228,0.023622,-0.070866,-0.110236,0.03937,0.086614,-0.055118,-0.181102,-0.094488,0.251969,0.047244,0.11811,0.,-0.031496,-0.259843,0.055118,-0.110236,0.204724,-0.110236,-0.244094,-0.377953,0.015748,-0.031496,0.748031,0.448819,-0.732283,-0.15748,0.338583,-0.11811,-0.141732,-0.015748,0.055118,-0.212598,0.031496,0.007874,0.244094,-0.173228,0.086614,-0.456693,0.267717,-0.425197,-0.149606,-0.031496,-0.204724,-0.173228,-0.086614,0.692913,-0.448819,0.606299,0.259843,0.653543,-0.80315,0.259843,-0.094488,0.007874,0.007874,-0.007874,0.023622,-0.133858,-0.03937,-0.03937,-0.220472,0.086614,0.015748,0.086614,0.299213,-0.023622,-0.181102,-0.023622,0.,0.062992,-0.086614,-0.03937,0.070866,0.094488,0.094488,-0.070866,-0.204724,-0.212598,0.141732,0.070866,0.094488,-0.133858,0.047244,-0.062992,0.062992,-0.055118,0.047244,-0.062992,-0.133858,0.102362,0.015748,0.,0.031496,-0.031496,-0.062992,0.047244,0.062992,-0.070866,0.07874,-0.015748,-0.015748,-0.094488,-0.173228,-0.007874,0.015748,-0.023622,0.181102,0.181102,-0.133858,-0.015748,0.031496,-0.047244,-0.031496,-0.102362,0.023622,0.047244,-0.015748,-0.141732,0.031496,0.15748,-0.102362,0.346457,-0.133858,-0.133858,0.007874,0.015748,0.015748,-0.023622,-0.015748,0.062992,0.07874,0.015748,-0.031496,-0.015748,-0.165354,0.007874,0.07874,-0.15748,-0.007874,-0.015748,0.228346,-0.007874,-0.204724,0.015748,0.047244,-0.070866,0.047244,-0.023622,0.062992,-0.031496,0.007874,-0.220472,0.015748,0.110236,-0.023622,0.141732,-0.259843,0.03937,-0.015748,-0.047244,0.03937,0.015748,0.007874,0.,0.007874,0.015748,0.023622,-0.023622,-0.031496,0.023622,0.015748,0.,-0.086614,-0.047244,0.023622,0.023622,0.007874,-0.007874,-0.007874,0.,-0.007874,0.,-0.015748,0.,-0.015748,-0.047244,-0.031496,-0.007874,0.03937,0.03937,-0.007874,0.,-0.023622,-0.007874,-0.007874,-0.007874,0.023622,-0.023622,0.,-0.007874,0.007874,0.007874,-0.023622,-0.031496,-0.007874,-0.007874,-0.015748,0.07874,-0.047244,-0.031496,0.,-0.031496,0.,0.,0.007874,-0.007874,-0.015748,-0.015748,-0.047244,-0.015748,0.,-0.023622,-0.015748,-0.015748,-0.062992,-0.015748,-0.007874,0.031496,0.,0.055118,0.023622,-0.03937,-0.031496,-0.007874,0.,-0.031496,0.,0.007874,-0.03937,0.,0.023622,0.047244,-0.015748,-0.062992,0.023622,0.023622,0.,-0.007874,-0.03937,-0.031496,0.007874,-0.03937,0.031496,0.,-0.007874,-0.047244,0.055118,-0.070866,0.03937,0.031496,-0.062992,0.015748,-0.047244,0.007874,0.031496,-0.03937,-0.047244,-0.03937,-0.023622,-0.015748,-0.03937,-0.03937,0.015748,0.03937,0.023622,0.133858,-0.102362,-0.03937,0.015748,0.03937,0.,-0.023622,-0.007874,-0.015748,0.007874,-0.031496,-0.015748,0.023622,0.,0.007874,0.031496,-0.055118,-0.007874,0.,-0.03937,-0.023622,-0.007874,-0.015748,0.03937,0.,-0.007874,0.023622,-0.015748,0.007874,-0.023622,-0.007874,0.,0.,-0.03937,-0.007874,-0.023622,-0.031496,0.015748,-0.047244,-0.03937,0.031496,-0.007874,0.031496,0.015748,-0.031496,-0.031496,-0.007874,-0.015748,-0.015748,-0.015748,-0.015748,-0.031496,0.047244,0.007874,-0.007874,0.062992,-0.03937,-0.03937,0.023622,-0.007874,-0.023622,0.007874,-0.015748,-0.03937,0.03937,-0.047244,0.03937,-0.007874,-0.007874,0.031496,0.,0.,-0.055118,0.015748,-0.015748,-0.023622,-0.007874,0.03937,-0.047244,0.015748,-0.031496,0.015748,-0.007874,0.015748,-0.015748,-0.031496,0.007874,-0.07874,0.015748,0.,-0.031496,0.015748,0.031496,-0.007874,-0.023622,-0.03937,-0.031496,0.023622,-0.007874,0.031496,0.007874,-0.094488,-0.031496,0.023622,0.,0.015748,0.015748,-0.007874,-0.03937,0.023622,-0.007874,-0.007874,0.055118,-0.015748,0.015748,-0.023622,-0.070866,0.055118,0.,0.,-0.023622,0.,-0.03937,-0.023622,-0.055118,0.007874,0.047244,0.023622,0.031496,-0.023622,-0.062992,0.007874,0.015748,-0.070866,0.023622,-0.031496,0.023622,-0.047244,0.015748,0.070866,-0.007874,-0.047244,0.007874,0.007874,0.,0.007874,-0.062992,-0.007874,-0.023622,0.055118,0.,-0.023622,-0.023622,-0.007874,0.023622,-0.070866,-0.023622,0.023622,0.015748,-0.031496,0.007874,0.007874,-0.03937,-0.031496,-0.023622,0.,0.,-0.03937,-0.07874,0.031496,0.023622,0.007874,0.03937,0.023622,-0.023622,0.062992,0.,-0.031496,0.015748,-0.015748,-0.03937,0.015748,-0.023622,-0.031496,-0.070866,-0.015748,0.015748,-0.023622,0.031496,-0.062992,-0.015748,0.055118,0.070866,-0.047244,-0.047244,0.015748,-0.015748,-0.023622,-0.007874,-0.007874,0.007874,-0.055118,0.094488,-0.03937,0.007874,0.023622,0.,-0.015748,-0.015748,-0.023622,-0.007874,-0.007874,-0.023622,-0.047244,-0.03937,0.023622,0.,0.086614,0.,-0.031496,0.023622,0.015748,-0.102362,0.007874,-0.023622,-0.03937,0.023622,-0.007874,0.023622,-0.023622,-0.007874,-0.007874,0.015748,-0.023622,-0.023622,0.031496,-0.062992,0.03937,-0.007874,-0.015748,0.023622,-0.031496,-0.007874,-0.023622,-0.023622,-0.015748,0.007874,-0.007874,-0.015748,-0.015748,0.,0.007874,0.007874,-0.023622,-0.031496,0.,-0.023622,0.007874,-0.015748,-0.007874,0.007874,0.015748,-0.023622,0.015748,-0.015748,-0.015748,-0.023622,-0.015748,0.,0.,0.031496,-0.055118,0.015748,-0.007874,-0.023622
