repovizz,framerate=200
0.125984,0.070866,-0.055118,0.,-0.031496,-0.055118,0.,0.007874,0.055118,0.031496,-0.023622,0.007874,0.03937,-0.086614,-0.047244,0.015748,0.047244,-0.03937,-0.070866,0.,-0.03937,0.062992,-0.055118,-0.031496,0.015748,0.023622,0.007874,0.015748,-0.03937,0.023622,-0.062992,-0.031496,0.03937,-0.03937,0.11811,-0.03937,-0.047244,-0.007874,0.,-0.007874,-0.015748,-0.023622,-0.023622,0.,-0.007874,0.,-0.007874,0.007874,0.,-0.015748,-0.007874,0.015748,0.015748,-0.007874,0.007874,-0.031496,-0.031496,-0.007874,0.007874,-0.023622,0.007874,0.,-0.015748,-0.023622,0.007874,0.023622,0.03937,0.007874,0.023622,0.015748,-0.03937,-0.015748,0.,-0.031496,-0.015748,-0.047244,-0.047244,-0.023622,-0.047244,0.,0.015748,-0.007874,-0.055118,-0.062992,-0.015748,-0.007874,0.03937,0.047244,0.031496,0.031496,0.07874,0.062992,0.023622,-0.023622,-0.07874,0.015748,-0.015748,-0.015748,-0.03937,-0.023622,-0.015748,-0.015748,-0.047244,-0.11811,-0.133858,0.102362,0.133858,0.023622,-0.007874,0.03937,-0.062992,-0.070866,-0.133858,-0.094488,-0.07874,-0.070866,-0.086614,-0.031496,0.141732,0.188976,0.314961,0.023622,-0.031496,-0.070866,-0.070866,-0.047244,0.023622,-0.047244,-0.055118,-0.03937,0.031496,-0.03937,-0.062992,-0.03937,-0.031496,0.070866,0.023622,0.094488,-0.023622,-0.055118,-0.031496,-0.055118,-0.062992,0.023622,0.03937,0.047244,0.,0.023622,-0.102362,-0.023622,0.007874,0.023622,0.07874,-0.086614,-0.047244,-0.015748,0.03937,0.,0.031496,0.015748,0.055118,-0.031496,0.,-0.031496,-0.015748,0.007874,0.015748,0.,-0.03937,0.015748,0.07874,-0.133858,-0.086614,-0.047244,-0.03937,0.125984,-0.055118,-0.15748,-0.11811,0.015748,0.086614,0.228346,-0.047244,0.007874,-0.055118,-0.023622,0.03937,0.,0.11811,-0.086614,-0.047244,0.007874,-0.015748,-0.023622,0.015748,0.015748,0.055118,0.007874,-0.015748,-0.102362,-0.125984,-0.03937,0.07874,0.007874,0.015748,0.102362,-0.086614,0.015748,0.,0.,-0.015748,-0.086614,0.015748,-0.023622,0.062992,-0.055118,0.,0.,0.,0.031496,-0.023622,-0.047244,0.007874,-0.023622,0.03937,-0.086614,0.007874,-0.055118,0.03937,0.03937,-0.03937,-0.055118,0.055118,0.062992,-0.047244,0.023622,0.015748,0.03937,0.070866,0.07874,-0.03937,0.015748,0.,-0.03937,0.007874,-0.070866,0.,0.023622,-0.188976,0.,-0.070866,0.102362,-0.031496,-0.015748,-0.125984,-0.031496,0.055118,-0.094488,0.07874,-0.03937,0.007874,-0.11811,0.047244,0.007874,-0.047244,0.141732,0.055118,-0.062992,0.11811,-0.015748,-0.149606,0.133858,-0.212598,-0.055118,0.070866,-0.015748,-0.110236,0.181102,-0.11811,-0.047244,-0.023622,-0.007874,0.03937,-0.070866,-0.086614,0.110236,0.,-0.11811,0.07874,0.03937,-0.023622,0.055118,-0.070866,-0.015748,0.015748,-0.125984,-0.141732,-0.094488,0.015748,0.165354,0.259843,-0.102362,-0.015748,0.023622,-0.03937,-0.094488,0.125984,-0.031496,0.212598,-0.07874,0.015748,-0.07874,-0.015748,-0.047244,0.,-0.125984,0.086614,0.03937,0.062992,0.110236,-0.102362,-0.015748,-0.086614,0.125984,-0.07874,0.070866,-0.133858,-0.070866,-0.03937,-0.086614,-0.070866,0.149606,-0.031496,-0.031496,-0.007874,0.03937,0.070866,0.047244,-0.062992,-0.007874,0.007874,-0.141732,0.03937,0.070866,-0.062992,0.055118,-0.11811,-0.070866,0.047244,-0.047244,-0.007874,0.023622,-0.015748,0.023622,0.173228,-0.031496,-0.173228,0.15748,-0.094488,-0.228346,0.07874,0.055118,0.015748,-0.047244,0.086614,-0.07874,0.,-0.007874,0.07874,0.102362,-0.102362,0.007874,-0.031496,0.023622,-0.031496,-0.11811,-0.007874,-0.094488,0.007874,0.149606,-0.125984,0.015748,0.015748,-0.031496,-0.023622,0.,-0.094488,0.110236,-0.007874,0.055118,-0.03937,-0.149606,0.070866,-0.055118,0.015748,0.094488,0.03937,-0.173228,0.047244,-0.03937,0.015748,-0.023622,0.015748,-0.015748,-0.07874,0.141732,-0.070866,0.,0.007874,-0.055118,0.11811,-0.015748,-0.141732,0.031496,-0.03937,-0.125984,0.15748,-0.173228,0.055118,0.015748,0.,0.031496,-0.03937,0.031496,0.149606,0.,-0.062992,-0.094488,0.070866,0.007874,0.007874,0.070866,-0.133858,-0.047244,0.094488,-0.133858,-0.055118,-0.007874,0.023622,0.181102,0.102362,-0.314961,0.173228,-0.094488,0.19685,-0.23622,-0.094488,-0.062992,-0.346457,0.173228,-0.204724,0.212598,-0.070866,0.629921,-0.622047,0.102362,0.015748,-0.094488,0.055118,0.023622,0.,0.15748,-0.165354,-0.03937,-0.188976,0.15748,-0.055118,0.047244,0.007874,-0.204724,0.228346,0.086614,0.03937,-0.007874,0.370079,-0.141732,-0.102362,-0.141732,0.023622,0.,0.007874,-0.086614,0.11811,-0.149606,0.212598,0.11811,-0.023622,0.07874,-0.188976,-0.055118,-0.07874,0.086614,-0.15748,-0.094488,0.251969,-0.141732,0.125984,-0.047244,-0.299213,0.023622,-0.070866,-0.007874,-0.070866,-0.165354,-0.007874,-0.125984,0.133858,0.133858,0.110236,0.015748,-0.110236,-0.102362,0.,0.015748,0.102362,-0.047244,0.086614,-0.11811,0.19685,-0.212598,-0.125984,0.259843,-0.165354,0.377953,-0.110236,0.11811,-0.094488,-0.047244,-0.007874,0.031496,0.181102,-0.338583,0.07874,-0.070866,-0.070866,-0.007874,0.110236,0.047244,-0.055118,0.007874,-0.204724,0.03937,0.110236,0.165354,-0.086614,-0.03937,0.,-0.070866,0.188976,-0.259843,-0.070866,0.062992,0.07874,-0.283465,0.15748,0.110236,-0.086614,-0.03937,0.11811,0.047244,-0.03937,-0.023622,-0.015748,0.023622,0.07874,-0.110236,-0.055118,0.086614,-0.03937,0.015748,-0.094488,-0.047244,0.228346,-0.023622,-0.031496,-0.165354,-0.220472,0.417323,-0.086614,0.07874,0.047244,-0.181102,0.,0.110236,-0.448819,0.188976,0.062992,-0.086614,0.023622,0.165354,-0.03937,0.015748,0.094488,0.015748,-0.299213,0.11811,-0.070866,-0.299213,0.299213,-0.133858,-0.251969,0.047244,0.03937,0.291339,-0.299213,0.055118,-0.23622,0.094488,-0.15748,-0.055118,-0.062992,0.299213,0.03937,0.173228,-0.377953,-0.519685,0.488189,0.740157,0.267717,-0.19685,0.19685,-0.511811,0.299213,-0.259843,0.251969,0.204724,-0.15748,-0.007874,-0.322835,0.055118,0.11811,0.086614,-0.03937,0.425197,-0.370079,-0.15748,0.212598,-0.590551,0.133858,-0.385827,0.503937,-0.110236,0.259843,-0.370079,0.314961,-0.440945,0.259843,-0.19685,-0.417323,0.244094,0.299213,-0.070866,0.03937,0.133858,-0.629921,0.346457,-0.362205,-0.094488,-0.125984,0.141732,-0.062992,-0.055118,-0.102362,0.165354,0.181102,-0.070866,-0.023622,-0.086614,-0.188976,-0.086614,0.212598,-0.023622,-0.456693,0.251969,-0.031496,-0.188976,0.007874,-0.496063,0.070866,-0.220472,0.188976,-0.07874,0.275591,-0.433071,0.338583,0.708661,-0.456693,0.692913,-0.102362,0.299213,0.047244,0.133858,-0.047244,0.19685,0.062992,0.464567,-0.220472,-0.503937,0.251969,0.299213,-0.07874,0.110236,-0.244094,0.007874,-0.133858,-0.456693,0.03937,0.086614,0.11811,0.251969,0.212598,-0.07874,-0.031496,-0.133858,0.086614,0.07874,0.07874,-0.299213,0.165354,0.11811,0.023622,0.007874,-0.377953,-0.346457,0.440945,0.015748,0.023622,0.007874,-0.11811,0.094488,-0.141732,0.062992,0.070866,0.11811,-0.047244,0.03937,-0.125984,-0.149606,0.07874,-0.086614,0.15748,0.03937,-0.062992,-0.031496,-0.07874,0.07874,0.07874,0.015748,0.,-0.007874,-0.015748,0.173228,-0.086614,-0.11811,0.03937,-0.212598,-0.047244,0.110236,-0.023622,-0.015748,-0.062992,-0.102362,-0.055118,0.094488,0.110236,-0.015748,0.023622,-0.149606,0.070866,0.094488,-0.070866,0.,0.070866,-0.023622,-0.023622,0.188976,0.015748,-0.031496,-0.015748,-0.055118,0.031496,-0.03937,-0.015748,-0.055118,-0.125984,-0.086614,-0.07874,-0.055118,-0.015748,-0.03937,-0.07874,-0.007874,-0.102362,0.11811,0.125984,0.015748,0.047244,0.015748,0.03937,-0.015748,0.070866,0.007874,0.070866,-0.023622,0.,0.,0.007874,0.,0.023622,-0.031496,0.007874,-0.07874,-0.031496,0.062992,-0.031496,-0.062992,-0.015748,0.047244,-0.023622,-0.047244,0.055118,0.031496,-0.062992,0.023622,0.015748,-0.023622,-0.03937,-0.062992,-0.03937,0.023622,0.055118,-0.023622,0.062992,-0.181102,0.047244,0.055118,-0.047244,-0.007874,0.015748,0.031496,0.023622,-0.023622,0.023622,-0.110236,0.070866,-0.11811,0.015748,0.,-0.055118,0.291339,-0.141732,-0.062992,0.015748,0.110236,-0.03937,-0.07874,0.031496,-0.015748,0.007874,-0.086614,0.070866,-0.023622,0.055118,-0.102362,-0.047244,0.031496,0.007874,0.244094,-0.23622,-0.086614,-0.110236,-0.031496,-0.062992,-0.062992,0.031496,0.007874,-0.047244,0.086614,-0.094488,0.267717,-0.062992,0.,0.047244,-0.047244,-0.047244,-0.03937,0.031496,0.031496,0.133858,-0.181102,0.03937,-0.047244,0.,-0.070866,-0.055118,-0.094488,0.086614,-0.031496,0.188976,-0.086614,0.062992,-0.070866,-0.007874,-0.031496,0.,0.062992,-0.070866,-0.03937,-0.007874,-0.023622,-0.023622,-0.070866,0.055118,0.062992,-0.11811,0.007874,-0.110236,-0.055118,-0.007874,0.015748,0.007874,-0.007874,-0.125984,0.007874,-0.007874,0.047244,0.141732,-0.086614,-0.03937,-0.047244,0.,0.07874,0.007874,-0.055118,0.015748,-0.047244,0.055118,-0.047244,0.023622,-0.125984,0.125984,0.11811,0.047244,-0.055118,-0.299213,-0.007874,-0.062992,0.267717,-0.007874,0.031496,-0.110236,-0.055118,-0.015748,-0.007874,0.11811,-0.047244,0.07874,-0.102362,0.055118,0.062992,-0.094488,0.,0.086614,0.,0.141732,-0.11811,-0.165354,0.094488,0.03937,0.086614,-0.07874,0.023622,-0.047244,-0.094488,-0.015748,0.007874,0.141732,0.,-0.133858,-0.03937,0.015748,0.070866,-0.015748,-0.094488,0.015748,-0.086614,0.181102,0.055118,-0.125984,0.007874,-0.07874,-0.094488,-0.055118,0.,0.047244,0.15748,-0.094488,-0.007874,0.023622,0.03937,-0.212598,0.03937,0.086614,-0.149606,0.03937,-0.007874,-0.007874,0.070866,-0.070866,-0.015748,-0.007874,-0.062992,0.07874,0.110236,-0.212598,-0.047244,0.055118,-0.047244,0.,0.181102,0.,-0.070866,-0.094488,0.125984,-0.031496,0.062992,-0.031496,-0.086614,0.062992,-0.023622,-0.07874,-0.047244,-0.023622,0.055118,0.133858,-0.338583,0.031496,0.086614,0.031496,-0.149606,-0.23622,0.03937,-0.047244,-0.15748,0.283465,0.070866,-0.19685,0.283465,0.102362,0.110236,0.267717,-0.220472,-0.094488,-0.204724,0.133858,0.11811,0.291339,-0.19685,-0.19685,0.125984,-0.259843,0.015748,-0.165354,0.102362,-0.102362,0.291339,-0.070866,-0.070866,-0.188976,-0.181102,0.338583,0.023622,0.141732,-0.110236,0.062992,-0.212598,0.062992,-0.181102,0.19685,-0.259843,0.007874,0.055118,-0.110236,-0.149606,0.03937,0.062992,0.031496,0.283465,0.007874,-0.110236,-0.007874,0.244094,-0.031496,0.015748,-0.094488,-0.055118,-0.03937,-0.299213,-0.007874,0.102362,-0.094488,0.165354,-0.055118,0.007874,-0.055118,0.,-0.15748,0.354331,-0.259843,0.031496,-0.062992,-0.055118,0.370079,-0.15748,0.070866,-0.047244,-0.055118,0.,-0.07874,-0.181102,0.03937,-0.023622,0.181102,0.062992,-0.031496,0.023622,0.007874,-0.015748,-0.291339,0.141732,-0.110236,0.094488,0.03937,-0.110236,0.267717,-0.070866,0.086614,-0.149606,-0.11811,-0.055118,0.07874,-0.015748,-0.07874,-0.007874,0.047244,-0.259843,0.023622,0.212598,-0.251969,0.19685,-0.102362,0.023622,-0.062992,0.173228,-0.173228,0.062992,0.047244,0.181102,-0.055118,0.212598,-0.338583,-0.047244,-0.03937,0.181102,-0.19685,-0.11811,0.220472,-0.433071,0.377953,-0.062992,0.031496,0.204724,-0.322835,-0.055118,0.023622,0.251969,0.015748,-0.15748,0.015748,-0.314961,0.228346,0.19685,-0.110236,-0.165354,0.070866,0.220472,-0.188976,-0.086614,0.220472,-0.023622,0.244094,-0.440945,0.086614,-0.086614,0.204724,0.023622,-0.19685,0.228346,0.212598,-0.165354,0.,0.070866,0.007874,-0.047244,-0.015748,-0.228346,0.07874,0.370079,-0.007874,-0.244094,0.275591,0.149606,0.070866,-0.307087,-0.724409,0.724409,-0.307087,0.267717,-0.204724,0.181102,0.440945,-0.173228,-0.566929,-0.488189,-0.133858,0.362205,-0.456693,-0.03937,0.102362,0.055118,-0.094488,0.433071,0.543307,-1.007874,0.88189,-0.456693,0.007874,0.228346,0.03937,-0.086614,0.417323,-0.338583,0.559055,-0.267717,-0.645669,0.330709,-0.094488,-0.031496,0.551181,0.102362,0.173228,0.370079,-0.84252,0.771654,0.007874,-0.055118,0.23622,-0.149606,0.15748,-0.976378,0.267717,0.094488,0.251969,0.653543,-0.181102,0.070866,-0.944882,0.76378,0.259843,0.173228,-0.425197,-0.267717,0.212598,-0.07874,-0.15748,-0.417323,0.354331,-0.511811,0.377953,-0.204724,-0.944882,0.527559,0.96063,0.07874,-0.102362,-0.811024,0.07874,0.472441,-0.15748,0.251969,0.275591,0.,-0.503937,-0.181102,-0.425197,-0.472441,0.771654,0.283465,0.031496,-0.070866,-0.448819,0.11811,-0.685039,0.795276,-0.086614,0.094488,0.889764,-0.11811,-0.015748,-0.622047,0.110236,0.023622,0.102362,0.370079,-0.614173,-0.472441,0.330709,0.228346,-0.062992,0.110236,0.070866,-0.070866,-0.15748,0.102362,0.015748,-0.244094,-0.007874,0.125984,-0.03937,-0.07874,0.102362,-0.259843,-0.070866,0.023622,0.125984,0.023622,0.055118,-0.007874,-0.070866,-0.047244,-0.141732,0.228346,0.062992,0.07874,0.023622,0.102362,0.110236,0.070866,-0.023622,-0.11811,-0.228346,-0.015748,-0.015748,0.,-0.023622,0.007874,0.015748,0.03937,-0.047244,0.007874,-0.070866,-0.007874,0.015748,-0.031496,0.03937,-0.015748,-0.015748,-0.15748,0.047244,-0.055118,-0.023622,-0.086614,-0.031496,0.023622,0.062992,0.141732,0.007874,-0.007874,0.007874,-0.007874,0.007874,-0.007874,-0.023622,0.,0.,0.007874,0.007874,0.007874,-0.023622,-0.03937,0.007874,-0.015748,0.007874,0.03937,-0.047244,-0.007874,0.,0.,0.007874,0.015748,-0.031496,-0.055118,0.015748,0.031496,-0.03937,-0.023622,-0.062992,0.015748,-0.062992,-0.055118,0.015748,-0.023622,0.03937,-0.07874,-0.047244,-0.03937,0.094488,0.055118,0.023622,0.055118,0.062992,0.031496,0.055118,0.102362,0.07874,0.070866,0.055118,-0.023622,-0.102362,-0.031496,-0.102362,-0.15748,-0.07874,-0.181102,-0.19685,0.062992,0.023622,0.275591,0.110236,-0.047244,-0.094488,-0.031496,-0.125984,-0.15748,-0.110236,0.023622,0.055118,0.031496,0.110236,-0.094488,0.125984,0.047244,0.023622,0.023622,0.015748,0.023622,-0.023622,0.015748,0.086614,-0.133858,-0.094488,-0.125984,-0.047244,-0.062992,0.047244,0.047244,-0.062992,0.023622,-0.15748,-0.055118,0.055118,0.,0.173228,0.086614,0.062992,-0.007874,-0.102362,-0.007874,0.047244,-0.007874,-0.165354,-0.031496,0.102362,-0.070866,-0.11811,-0.047244,-0.007874,0.188976,-0.047244,-0.149606,0.07874,0.251969,0.11811,0.165354,-0.480315,-0.055118,0.03937,0.094488,-0.023622,-0.03937,-0.11811,0.094488,-0.267717,-0.062992,0.173228,0.047244,0.023622,-0.086614,-0.03937,-0.062992,0.338583,-0.173228,0.23622,-0.181102,-0.023622,-0.125984,0.007874,0.055118,-0.055118,-0.055118,-0.070866,-0.023622,-0.086614,0.15748,0.007874,0.007874,-0.110236,-0.015748,-0.07874,-0.023622,0.007874,-0.149606,0.228346,-0.031496,0.031496,0.141732,-0.11811,0.031496,-0.062992,0.19685,0.007874,-0.094488,0.015748,-0.055118,0.070866,-0.03937,0.007874,-0.031496,-0.047244,0.007874,0.055118,-0.015748,-0.007874,-0.023622,0.007874,0.125984,-0.149606,-0.015748,0.,-0.047244,0.086614,0.007874,0.062992,0.,-0.015748,0.03937,-0.062992,-0.03937,-0.031496,-0.047244,0.094488,-0.015748,0.062992,-0.11811,0.03937,-0.07874,0.086614,0.,0.,-0.094488,0.,0.188976,-0.165354,-0.015748,-0.125984,0.055118,0.086614,-0.007874,-0.03937,-0.07874,0.015748,-0.007874,-0.133858,0.125984,0.,0.03937,-0.007874,-0.141732,-0.110236,0.165354,0.031496,0.03937,-0.11811,-0.015748,0.070866,0.015748,0.023622,0.102362,-0.125984,-0.031496,0.03937,-0.11811,0.19685,-0.188976,0.047244,0.031496,-0.031496,-0.031496,0.055118,0.03937,-0.070866,0.047244,-0.133858,-0.086614,0.062992,-0.07874,0.007874,0.070866,-0.023622,0.102362,-0.047244,0.086614,-0.023622,-0.133858,-0.251969,-0.102362,0.,0.251969,0.212598,0.086614,-0.23622,-0.023622,0.354331,-0.149606,-0.015748,-0.070866,-0.015748,-0.007874,0.07874,0.055118,-0.062992,0.086614,-0.070866,0.204724,-0.291339,0.165354,-0.070866,0.015748,0.110236,-0.456693,0.125984,-0.354331,-0.007874,0.031496,0.23622,-0.251969,0.133858,-0.125984,-0.015748,-0.070866,0.015748,0.212598,-0.031496,0.023622,-0.055118,0.015748,-0.173228,-0.031496,-0.070866,0.007874,0.03937,0.125984,0.102362,-0.15748,0.11811,0.173228,-0.23622,-0.023622,0.,0.07874,0.165354,-0.102362,-0.007874,0.07874,-0.15748,-0.03937,0.07874,0.070866,0.086614,0.023622,-0.062992,-0.251969,-0.007874,0.023622,0.031496,0.023622,-0.03937,0.023622,-0.007874,-0.031496,-0.055118,0.11811,-0.110236,-0.023622,-0.007874,-0.070866,0.03937,0.031496,0.062992,-0.007874,-0.15748,-0.047244,0.031496,0.094488,-0.094488,-0.110236,-0.007874,-0.047244,0.07874,-0.047244,0.047244,0.062992,-0.094488,-0.007874,-0.015748,0.070866,0.102362,-0.086614,-0.015748,-0.055118,-0.023622,-0.062992,0.11811,0.007874,0.007874,-0.07874,0.086614,-0.023622,-0.125984,0.086614,-0.11811,-0.031496,-0.220472,0.03937,0.094488,-0.007874,0.062992,-0.055118,0.165354,0.,-0.393701,0.204724,0.03937,-0.07874,0.220472,-0.566929,0.,0.338583,0.007874,0.181102,-0.251969,-0.007874,-0.102362,0.173228,-0.07874,0.031496,-0.15748,0.031496,-0.007874,-0.007874,-0.259843,0.133858,0.062992,0.015748,-0.228346,-0.047244,-0.062992,0.125984,0.070866,0.015748,0.181102,-0.755906,0.755906,0.141732,0.141732,-0.346457,0.125984,-0.03937,-0.19685,0.070866,0.417323,0.102362,0.251969,-0.251969,0.062992,-0.307087,-0.015748,0.559055,0.19685,0.11811,-0.173228,-0.007874,-0.07874,0.275591,0.299213,0.015748,-0.740157,0.015748,-0.338583,-0.015748,-0.062992,-0.566929,0.133858,0.456693,-0.181102,-0.015748,0.,-0.220472,-0.023622,0.259843,-0.141732,0.346457,0.149606,-0.212598,0.03937,-0.251969,0.094488,-0.11811,0.551181,-0.503937,0.677165,-0.23622,-0.480315,0.503937,0.102362,-0.110236,0.204724,0.11811,-0.377953,0.110236,-0.409449,-0.031496,0.031496,-0.015748,0.03937,0.,0.165354,-0.023622,0.094488,0.354331,0.291339,-0.220472,-1.007874,-0.440945,0.047244,0.787402,-0.598425,-0.110236,0.385827,0.488189,-0.488189,0.102362,-0.653543,-0.346457,0.496063,-0.07874,-0.031496,-0.897638,0.062992,0.488189,-0.047244,-0.07874,-0.102362,-0.440945,0.732283,0.622047,0.110236,0.314961,-0.661417,0.566929,0.669291,-0.291339,-0.267717,0.,0.409449,0.03937,-0.031496,-0.212598,0.023622,-0.228346,-0.023622,0.055118,0.023622,0.031496,-0.023622,0.023622,-0.03937,-0.015748,-0.007874,0.,-0.007874,0.,-0.023622,-0.055118,0.023622,-0.015748,0.070866,0.047244,-0.03937,0.047244,0.,0.031496,-0.031496,-0.007874,-0.062992,-0.031496,-0.015748,0.015748,-0.055118,0.,0.,-0.007874,-0.015748,-0.007874,-0.015748,-0.023622,0.062992,0.023622,-0.03937,-0.031496,0.007874,-0.062992,-0.007874,0.,-0.07874,0.023622,-0.015748,-0.023622,0.015748,-0.015748,0.015748,-0.023622,0.031496,0.055118,0.023622,0.055118,0.094488,0.047244,-0.094488,0.015748,0.,-0.023622,0.03937,-0.015748,-0.070866,-0.03937,-0.015748,-0.031496,0.,-0.19685,-0.141732,-0.141732,0.102362,0.023622,0.11811,-0.03937,0.07874,0.023622,0.047244,0.015748,0.149606,0.062992,-0.047244,0.251969,0.188976,0.007874,-0.047244,-0.047244,0.031496,-0.055118,-0.19685,-0.385827,-0.291339,-0.267717,0.086614,0.291339,0.007874,-0.047244,0.07874,0.11811,0.094488,0.141732,-0.149606,-0.330709,-0.055118,0.070866,0.307087,0.125984,-0.251969,0.055118,-0.031496,0.007874,-0.094488,-0.07874,-0.031496,0.19685,-0.251969,0.070866,-0.220472,-0.086614,0.173228,0.031496,0.220472,-0.19685,0.,-0.047244,0.102362,-0.094488,0.086614,-0.086614,-0.007874,-0.047244,-0.267717,0.141732,-0.102362,0.149606,-0.125984,0.062992,-0.102362,0.,-0.031496,-0.055118,-0.086614,-0.07874,0.165354,0.007874,-0.007874,0.173228,0.110236,-0.125984,-0.055118,0.023622,-0.007874,-0.094488,0.031496,-0.047244,0.015748,0.03937,0.393701,-0.110236,0.11811,-0.047244,-0.094488,0.133858,0.047244,-0.283465,-0.03937,0.031496,-0.354331,0.338583,-0.220472,-0.023622,-0.047244,0.015748,0.086614,-0.07874,0.070866,0.031496,-0.181102,-0.244094,0.031496,-0.338583,0.574803,-0.03937,0.086614,0.173228,-0.259843,-0.015748,0.015748,0.228346,-0.094488,0.149606,0.023622,-0.047244,-0.062992,-0.03937,-0.023622,-0.125984,-0.047244,0.291339,-0.086614,0.062992,0.062992,-0.354331,0.023622,-0.055118,0.023622,-0.03937,0.023622,0.,-0.03937,-0.102362,0.007874,0.149606,0.070866,-0.070866,0.094488,-0.165354,-0.11811,0.188976,-0.125984,0.149606,-0.102362,-0.133858,0.086614,-0.055118,0.047244,0.070866,-0.07874,0.,-0.110236,0.259843,-0.094488,0.023622,0.015748,-0.007874,0.212598,0.062992,-0.015748,-0.086614,-0.11811,-0.149606,0.015748,-0.062992,0.149606,-0.102362,0.165354,0.031496,-0.094488,0.023622,-0.015748,-0.070866,-0.070866,0.031496,0.047244,0.03937,-0.03937,-0.023622,-0.07874,-0.015748,0.15748,-0.094488,0.031496,-0.070866,-0.204724,0.204724,-0.102362,0.11811,-0.133858,0.03937,-0.086614,0.094488,-0.023622,-0.03937,0.094488,0.047244,0.070866,0.015748,-0.070866,0.07874,-0.023622,-0.291339,0.062992,-0.015748,0.007874,0.07874,-0.125984,-0.015748,0.086614,0.015748,0.102362,-0.212598,0.070866,-0.070866,0.047244,0.070866,-0.141732,0.03937,-0.023622,-0.03937,-0.031496,-0.173228,0.133858,0.062992,-0.047244,0.086614,-0.094488,-0.070866,0.055118,-0.023622,0.023622,-0.015748,0.094488,-0.047244,0.023622,0.110236,-0.015748,-0.244094,0.133858,0.188976,0.062992,-0.228346,0.181102,-0.102362,-0.055118,-0.07874,-0.070866,0.15748,0.11811,-0.181102,-0.086614,0.031496,-0.23622,0.220472,0.212598,-0.031496,0.007874,-0.086614,0.031496,-0.094488,0.401575,0.133858,-0.456693,-0.330709,0.338583,0.023622,-0.125984,0.07874,-0.448819,0.181102,0.,0.212598,-0.267717,0.23622,-0.125984,-0.220472,0.031496,0.03937,-0.086614,-0.015748,0.086614,-0.244094,-0.07874,0.086614,0.07874,-0.07874,-0.086614,-0.204724,0.181102,0.102362,0.015748,-0.165354,-0.03937,0.055118,0.181102,-0.244094,-0.173228,0.11811,0.133858,0.11811,-0.299213,0.03937,-0.062992,0.03937,-0.055118,0.,0.102362,-0.007874,0.094488,-0.094488,-0.110236,0.015748,0.,0.015748,-0.062992,0.141732,0.07874,-0.031496,-0.007874,-0.220472,-0.07874,0.307087,0.015748,-0.007874,-0.007874,-0.047244,-0.133858,0.070866,0.11811,-0.070866,0.251969,-0.125984,-0.094488,0.03937,0.007874,0.03937,0.031496,-0.283465,0.110236,0.141732,-0.062992,-0.031496,0.102362,-0.062992,-0.094488,0.055118,-0.149606,-0.055118,-0.062992,-0.125984,-0.062992,-0.330709,-0.346457,-0.086614,0.007874,0.393701,0.677165,0.149606,-0.125984,-0.086614,0.15748,-0.141732,0.204724,-0.110236,0.094488,0.031496,-0.07874,-0.125984,-0.393701,0.086614,0.267717,0.15748,0.102362,-0.165354,-0.062992,0.181102,-0.047244,-0.149606,-0.031496,0.086614,-0.031496,0.094488,-0.023622,-0.070866,-0.165354,0.03937,-0.11811,0.070866,0.015748,-0.173228,0.102362,-0.03937,-0.149606,0.472441,-0.314961,-0.141732,0.062992,0.133858,-0.149606,0.149606,0.267717,-0.102362,-0.307087,0.259843,-0.03937,-0.125984,0.,-0.102362,0.259843,0.149606,0.015748,-0.204724,0.133858,-0.582677,0.212598,0.259843,0.503937,0.094488,-0.047244,-0.637795,-0.488189,0.818898,0.23622,-0.086614,-0.307087,0.23622,-0.338583,0.,0.,0.212598,-0.141732,-0.220472,-0.181102,0.511811,-0.259843,-0.188976,0.062992,-0.267717,-0.362205,-0.110236,0.535433,-0.897638,0.755906,0.173228,0.267717,0.062992,-0.23622,-0.047244,0.110236,-0.283465,0.125984,-0.362205,0.307087,0.464567,0.23622,0.393701,-0.826772,-0.511811,0.480315,0.228346,-0.102362,-0.606299,-0.031496,-0.03937,0.488189,-0.11811,-0.070866,-0.212598,0.228346,-0.188976,0.204724,-0.15748,-0.409449,0.472441,-0.165354,0.15748,-0.425197,0.834646,0.23622,-0.535433,0.023622,0.110236,0.070866,-0.165354,0.267717,0.015748,-0.362205,0.188976,-0.409449,0.322835,-0.433071,0.629921,-0.204724,-0.070866,-0.110236,0.551181,0.03937,-0.755906,0.629921,0.362205,0.519685,0.259843,-0.15748,-0.110236,0.110236,0.,0.110236,0.047244,-0.307087,-0.055118,0.393701,-0.141732,-0.007874,0.275591,0.354331,-0.283465,0.055118,-0.031496,-0.582677,0.480315,-0.165354,-0.07874,0.102362,-0.275591,-0.07874,-0.07874,-0.212598,0.102362,0.062992,0.062992,0.007874,-0.07874,-0.07874,0.393701,-0.015748,0.181102,-0.307087,-0.15748,0.244094,0.031496,0.393701,-0.425197,0.11811,0.094488,-0.149606,-0.047244,0.19685,0.,-0.086614,-0.015748,-0.598425,0.19685,0.228346,-0.141732,0.055118,-0.062992,0.133858,0.125984,-0.086614,-0.062992,-0.181102,0.031496,-0.031496,-0.023622,-0.015748,0.031496,0.055118,0.007874,-0.070866,-0.03937,0.,-0.015748,-0.007874,0.007874,-0.007874,-0.03937,0.055118,0.,-0.03937,-0.047244,-0.070866,0.03937,0.070866,0.031496,-0.031496,0.031496,-0.031496,-0.055118,0.047244,-0.086614,-0.03937,0.023622,0.,-0.007874,-0.023622,0.023622,0.,-0.007874,0.015748,0.023622,0.015748,-0.023622,-0.023622,-0.047244,-0.007874,0.007874,-0.03937,-0.007874,-0.031496,0.015748,-0.031496,0.015748,0.015748,-0.007874,-0.047244,0.007874,-0.007874,0.007874,-0.015748,0.007874,0.015748,0.015748,0.007874,-0.007874,-0.031496,0.007874,0.070866,0.,-0.047244,-0.07874,0.023622,-0.023622,-0.031496,-0.007874,-0.007874,-0.031496,0.031496,0.,0.007874,0.015748,0.023622,0.,-0.015748,-0.023622,0.,0.,0.023622,0.031496,0.062992,0.03937,-0.015748,-0.015748,-0.110236,0.,0.031496,-0.047244,-0.023622,-0.086614,-0.03937,-0.007874,0.03937,0.047244,0.007874,-0.047244,-0.015748,-0.023622,-0.007874,0.,-0.015748,-0.031496,0.,-0.031496,-0.03937,0.015748,-0.007874,0.086614,-0.031496,-0.031496,-0.023622,-0.015748,-0.023622,0.,-0.031496,-0.023622,-0.007874,-0.031496,-0.015748,0.015748,0.007874,0.,0.031496,0.007874,-0.007874,-0.015748,-0.007874,-0.023622,-0.007874,-0.015748,-0.023622,-0.015748,0.,0.007874,-0.055118,-0.031496,0.015748,0.023622,-0.062992,-0.007874,0.031496,0.,0.007874,0.094488,0.007874,0.023622,0.055118,-0.031496,-0.015748,0.031496,-0.023622,0.062992,0.094488,-0.149606,0.165354,-0.047244,-0.15748,0.062992,0.070866,-0.03937,0.007874,0.047244,0.03937,-0.086614,0.031496,0.031496,0.062992,0.055118,-0.007874,-0.007874,0.07874,0.149606,0.204724,0.212598,0.259843,0.259843,0.244094,0.338583,0.228346,0.007874,0.015748,0.409449,0.291339,-0.228346,-0.448819,-0.992126,-0.669291,-0.362205,-0.362205,-1.007874,-0.76378,-0.905512,0.047244,0.480315,0.307087,0.055118,0.275591,-0.133858,0.062992,0.047244,-0.96063,-0.228346,-0.496063,0.811024,0.84252,0.858268,0.645669,0.275591,0.055118,0.181102,-0.19685,0.086614,-0.015748,0.007874,0.133858,-0.062992,-0.070866,-0.023622,-0.086614,0.007874,-0.07874,-0.110236,-0.03937,-0.047244,0.007874,-0.062992,0.070866,0.275591,-0.023622,0.086614,0.070866,-0.125984,0.283465,0.173228,-0.086614,0.023622,-0.070866,-0.055118,0.031496,0.125984,-0.15748,-0.125984,0.433071,-0.228346,-0.165354,-0.259843,-0.070866,-0.11811,0.496063,0.110236,-0.299213,-0.141732,0.047244,0.212598,0.023622,-0.055118,-0.330709,-0.031496,-0.062992,-0.15748,0.07874,-0.19685,0.03937,0.125984,0.055118,0.023622,0.007874,-0.062992,-0.031496,0.141732,-0.346457,-0.228346,-0.488189,-0.330709,0.07874,0.07874,0.346457,0.685039,0.228346,0.401575,0.590551,0.11811,-0.062992,-0.015748,-0.283465,-0.590551,-0.283465,-0.165354,-0.220472,0.007874,-0.11811,0.094488,-0.031496,-0.023622,-0.133858,0.055118,0.204724,-0.070866,0.070866,-0.251969,0.031496,0.299213,0.472441,-0.007874,-0.181102,-0.267717,-0.149606,-0.007874,0.,0.,-0.047244,-0.015748,0.07874,0.125984,0.11811,0.070866,-0.228346,-0.07874,-0.015748,0.015748,0.204724,-0.055118,-0.110236,-0.102362,0.03937,0.125984,-0.125984,-0.023622,0.110236,0.086614,-0.086614,-0.094488,-0.023622,0.094488,0.023622,-0.094488,-0.11811,-0.086614,0.007874,0.377953,-0.212598,-0.047244,0.023622,0.062992,-0.070866,-0.007874,0.188976,-0.070866,0.031496,-0.094488,-0.086614,0.047244,-0.03937,-0.062992,-0.047244,-0.133858,-0.023622,0.03937,0.055118,0.015748,0.031496,0.007874,-0.086614,-0.031496,0.062992,0.007874,0.03937,-0.007874,0.,-0.031496,0.,-0.007874,0.,0.,-0.023622,-0.03937,0.,-0.031496,0.031496,-0.062992,-0.023622,0.,0.047244,0.086614,-0.055118,-0.173228,-0.086614,0.062992,0.03937,0.007874,-0.055118,0.015748,-0.015748,0.07874,-0.007874,-0.031496,0.007874,-0.023622,0.,-0.007874,0.03937,-0.03937,-0.094488,-0.023622,-0.007874,0.031496,0.086614,-0.03937,0.023622,-0.094488,-0.023622,0.031496,0.031496,-0.055118,0.023622,-0.007874,-0.086614,0.03937,-0.094488,0.055118,0.031496,-0.031496,0.055118,0.015748,-0.094488,-0.070866,-0.023622,0.023622,0.07874,-0.047244,-0.055118,0.062992,0.,-0.031496,-0.03937,0.086614,-0.031496,0.,-0.023622,-0.07874,0.086614,-0.023622,-0.03937,-0.070866,0.023622,-0.031496,0.07874,-0.015748,-0.070866,0.,0.,-0.047244,0.07874,-0.03937,-0.062992,0.,-0.031496,0.086614,-0.023622,-0.03937,0.,-0.015748,0.,-0.086614,0.007874,-0.023622,0.007874,0.,-0.094488,-0.062992,0.062992,0.086614,0.031496,-0.03937,-0.062992,-0.031496,0.007874,0.03937,0.015748,0.015748,-0.062992,-0.031496,-0.047244,-0.007874,0.,0.03937,-0.03937,-0.047244,-0.023622,0.03937,0.031496,0.031496,-0.055118,0.007874,0.03937,-0.015748,0.047244,-0.031496,-0.03937,0.094488,-0.015748,0.007874,0.015748,0.,-0.023622,0.007874,-0.023622,0.,-0.055118,0.007874,0.,0.007874,0.,-0.110236,0.015748,0.007874,0.,-0.047244,-0.015748,-0.070866,0.055118,-0.023622,0.015748,-0.023622,-0.03937,0.03937,-0.03937,-0.023622,0.015748,0.070866,-0.047244,0.,0.031496,-0.015748,-0.055118,0.03937,-0.015748,-0.047244,0.047244,-0.110236,0.055118,-0.110236,0.03937,0.047244,-0.031496,0.047244,-0.015748,-0.055118,-0.031496,0.062992,-0.015748,0.055118,-0.023622,-0.047244,0.03937,-0.102362,0.007874,-0.023622,0.086614,-0.031496,0.015748,-0.11811,-0.031496,0.03937,-0.015748,0.031496,-0.055118,-0.070866,0.031496,0.,0.015748,0.07874,-0.047244,-0.062992,0.,0.023622,-0.023622,0.15748,-0.062992,-0.031496,-0.023622,-0.023622,0.047244,-0.055118,0.03937,-0.015748,0.,0.031496,-0.007874,0.,0.007874,-0.055118,-0.094488,0.110236,-0.015748,-0.031496,0.03937,0.,0.015748,-0.07874,-0.007874,-0.031496,-0.055118,0.11811,-0.062992,0.03937,-0.07874,0.07874,-0.07874,-0.031496,-0.055118,0.031496,0.149606,-0.11811,0.07874,0.,-0.031496,-0.055118,0.03937,0.015748,-0.007874,-0.023622,0.,-0.015748,0.03937,-0.055118,-0.023622,-0.015748,0.023622,0.,-0.133858,0.070866,0.031496,0.055118,-0.07874,-0.110236,0.023622,0.023622,0.007874,0.055118,-0.055118,0.015748,-0.007874,-0.023622,0.007874,0.,-0.03937,0.007874,-0.015748,-0.015748,0.03937,-0.023622,-0.047244,0.03937,-0.023622,-0.047244,0.,-0.015748,-0.007874,-0.007874,0.023622,0.031496,-0.031496,-0.023622,-0.047244,0.,-0.031496,0.015748,-0.023622,-0.03937,0.007874,0.015748,-0.015748,0.023622,0.007874,-0.03937,0.015748,0.,-0.031496,0.031496,-0.055118,-0.015748,0.047244,-0.031496,0.023622,-0.07874,0.102362,-0.11811,0.047244,0.023622,-0.023622,-0.023622,-0.031496,0.007874,0.023622,0.07874,0.,-0.047244,-0.047244,-0.031496,0.015748,-0.047244,0.015748,-0.023622,0.007874,0.015748,0.007874,-0.015748,0.015748,-0.062992,0.031496,-0.007874,-0.031496,-0.023622,-0.110236,0.023622,-0.03937,0.055118,-0.055118,-0.023622,-0.015748,-0.031496,0.031496,0.062992,-0.070866,0.023622,0.031496,-0.070866,0.007874,0.007874,-0.007874,-0.047244,-0.023622,0.023622,0.015748,-0.055118,0.,0.023622,-0.015748,0.,0.015748,-0.047244,0.03937,0.007874,-0.047244,-0.031496,0.,-0.015748,0.125984,-0.047244,0.031496,0.03937,-0.070866,-0.102362,-0.031496,0.03937,-0.055118,-0.023622,0.007874,-0.086614,0.,0.070866,-0.062992,-0.007874,-0.007874,0.047244,-0.015748,0.007874,-0.007874,0.,-0.031496,-0.007874,0.023622,0.031496,-0.086614,0.023622,-0.102362,0.133858,-0.031496,0.007874,0.086614,-0.023622,0.007874,0.007874,0.,-0.086614,0.007874,0.047244,-0.007874,-0.03937,0.015748,0.015748,-0.031496,0.023622,-0.03937,0.007874,0.015748,-0.03937,-0.094488,-0.023622,0.070866,-0.023622,0.165354,-0.03937,-0.07874,0.047244,-0.015748,-0.055118,0.007874,-0.023622,-0.023622,0.007874,-0.007874,0.015748,-0.07874,0.023622,0.015748,-0.007874,-0.015748,-0.031496,0.03937,0.031496,0.03937,-0.094488,-0.015748,-0.007874,0.03937,-0.03937,-0.023622,-0.070866,0.102362,-0.086614,0.015748,-0.015748,0.007874,0.125984,-0.11811,-0.031496,0.015748,0.031496,-0.102362,-0.007874,0.007874,0.015748,0.047244,-0.094488,0.03937,0.,-0.031496,-0.031496,0.015748,-0.007874,-0.007874,-0.031496,-0.007874,-0.055118,0.023622,-0.086614,-0.031496,-0.015748,0.015748,0.19685,-0.102362,-0.047244,0.007874,0.015748,0.023622,-0.015748,-0.023622,-0.070866,-0.031496,0.03937,-0.007874,0.07874,-0.062992,0.007874,0.023622,-0.03937,0.047244,-0.023622,-0.007874,0.007874,-0.015748,0.,-0.007874,-0.023622,0.,-0.007874,0.,-0.015748,0.015748,-0.015748,0.007874,-0.023622,0.,-0.007874,0.,-0.015748,-0.007874,0.,-0.023622,0.03937,-0.055118,0.007874,-0.007874,-0.031496,-0.007874,0.,0.,-0.007874,-0.015748,0.007874,0.,-0.007874,-0.007874,0.007874,0.007874,0.,-0.015748,-0.03937,-0.047244,-0.023622,-0.031496,-0.023622,-0.023622,0.,0.,0.,-0.015748,-0.015748,-0.015748,-0.047244,0.007874,0.007874,0.007874,0.,-0.023622,0.03937,0.031496,0.,0.015748,-0.023622,0.055118,0.015748,0.015748,-0.007874,-0.023622,0.023622,0.007874,0.,-0.03937,-0.047244,-0.03937,0.007874,0.03937,0.03937,0.031496,-0.023622,-0.070866,-0.047244,0.,-0.031496,-0.007874,-0.007874,-0.031496,-0.015748,0.031496,-0.031496,-0.015748,-0.007874,-0.015748,0.,-0.023622,-0.023622,0.007874,0.031496,-0.015748,-0.062992,-0.070866,0.031496,-0.023622,0.07874,0.,-0.03937,0.,-0.023622,-0.007874,0.015748,-0.015748,0.007874,-0.031496,0.007874,0.,-0.031496,-0.055118,-0.031496,0.023622,0.047244,0.,-0.023622,0.023622,0.015748,0.070866,-0.062992,0.031496,0.007874,-0.062992,-0.015748,0.023622,-0.007874,0.023622,-0.031496,0.023622,-0.023622,0.007874,0.,-0.031496,0.007874,-0.023622,0.,-0.07874,0.,-0.023622,0.11811,-0.015748,-0.055118,-0.062992,-0.023622,0.07874,-0.070866,0.047244,-0.03937,-0.070866,0.007874,0.07874,-0.070866,0.015748,-0.031496,-0.047244,0.047244,0.031496,0.023622,-0.094488,0.086614,-0.031496,0.031496,0.007874,-0.070866,0.031496,0.070866,0.062992,0.015748,-0.062992,0.015748,-0.125984,-0.15748,-0.086614,0.007874,0.11811,-0.07874,0.086614,-0.031496,0.047244,0.,0.070866,-0.03937,-0.015748,-0.047244,-0.023622,-0.110236,0.007874,-0.094488,0.031496,0.11811,-0.15748,0.251969,-0.291339,-0.03937,0.007874,-0.086614,0.,0.086614,0.047244,0.062992,0.015748,-0.031496,-0.031496,-0.03937,-0.015748,0.03937,-0.07874,0.062992,-0.070866,-0.03937,0.070866,0.023622,-0.094488,0.023622,0.015748,0.,0.15748,-0.15748,0.03937,-0.070866,-0.023622,0.03937,0.031496,-0.07874,0.023622,-0.007874,-0.07874,0.007874,-0.023622,0.015748,0.03937,-0.015748,-0.031496,0.,-0.007874,0.03937,-0.023622,-0.047244,-0.031496,0.007874,-0.015748,-0.023622,-0.03937,0.007874,0.086614,-0.047244,-0.031496,0.015748,-0.023622,-0.007874,0.,-0.03937,-0.047244,0.007874,-0.007874,0.023622,-0.031496,0.023622,-0.031496,-0.031496,-0.015748,-0.023622,-0.023622,-0.007874,0.015748,0.,-0.023622,0.007874,0.,-0.062992,0.015748,0.047244,-0.055118,0.007874,-0.07874,-0.031496,0.110236,-0.015748,0.007874,0.023622,-0.007874,-0.07874,0.015748,-0.102362,0.125984,-0.031496,0.007874,0.03937,-0.03937,0.015748,-0.015748,-0.125984,0.165354,0.047244,-0.015748,0.047244,0.023622,0.007874,-0.086614,-0.125984,0.165354,0.031496,0.031496,0.133858,0.228346,0.141732,0.03937,0.015748,-0.503937,-0.212598,0.204724,-0.015748,-0.031496,0.141732,-0.464567,0.19685,-0.031496,-0.094488,0.511811,-0.346457,-0.330709,0.133858,-0.031496,-0.007874,-0.031496,0.023622,0.023622,-0.110236,0.,0.07874,-0.086614,0.149606,0.07874,-0.19685,0.015748,0.047244,-0.007874,-0.102362,0.015748,-0.031496,0.125984,0.023622,0.070866,-0.188976,0.07874,-0.070866,-0.055118,-0.031496,0.,0.070866,-0.086614,0.070866,-0.031496,-0.03937,-0.212598,0.133858,0.047244,-0.023622,0.031496,0.,0.023622,-0.055118,0.015748,0.,0.015748,-0.125984,-0.102362,0.102362,-0.212598,0.102362,0.259843,0.015748,-0.062992,-0.015748,-0.023622,-0.007874,-0.110236,-0.015748,0.110236,0.015748,-0.070866,0.165354,-0.047244,-0.031496,-0.055118,-0.070866,-0.03937,0.102362,0.047244,-0.007874,-0.03937,0.023622,-0.062992,0.047244,0.03937,0.023622,-0.141732,0.181102,-0.228346,-0.023622,-0.149606,0.070866,0.07874,0.055118,0.07874,0.07874,-0.015748,-0.370079,-0.031496,-0.165354,0.055118,0.055118,0.07874,0.165354,-0.244094,0.149606,0.212598,-0.283465,0.07874,-0.094488,0.07874,0.03937,-0.023622,0.015748,-0.007874,0.267717,-0.267717,0.110236,-0.110236,0.149606,-0.102362,-0.228346,0.062992,0.173228,-0.133858,0.070866,-0.094488,-0.173228,-0.125984,0.,-0.15748,0.133858,0.149606,-0.062992,0.330709,-0.503937,0.76378,-0.566929,0.425197,0.464567,-0.181102,-0.314961,0.055118,-0.275591,0.251969,-0.19685,0.03937,0.527559,-0.125984,0.023622,0.220472,-0.267717,-0.897638,0.574803,0.055118,-0.299213,0.204724,-0.031496,-0.267717,0.330709,-0.15748,-0.07874,-0.283465,-0.031496,-0.307087,0.062992,-0.055118,0.566929,0.110236,-0.086614,0.070866,-0.724409,0.669291,0.519685,0.401575,0.15748,-0.251969,0.19685,-0.283465,0.472441,-0.354331,-0.173228,-0.393701,0.440945,0.346457,0.393701,0.527559,-0.889764,0.685039,-0.165354,-0.629921,-0.283465,-0.669291,0.472441,0.440945,-0.188976,0.267717,-0.110236,0.133858,0.299213,-0.149606,-0.322835,0.133858,-0.614173,0.448819,0.047244,-0.299213,0.204724,0.094488,-0.055118,0.015748,0.007874,0.023622,0.015748,-0.031496,-0.015748,-0.086614,0.070866,-0.015748,0.007874,0.070866,-0.062992,0.015748,-0.03937,0.023622,-0.023622,-0.023622,0.023622,0.,0.007874,-0.047244,0.007874,0.023622,0.007874,-0.007874,-0.047244,-0.086614,0.03937,-0.03937,-0.015748,-0.03937,-0.07874,0.055118,0.031496,-0.007874,-0.015748,-0.023622,0.,-0.055118,-0.031496,0.055118,-0.055118,-0.03937,-0.015748,-0.015748,-0.007874,-0.015748,0.,0.015748,-0.023622,0.007874,0.03937,0.03937,0.007874,0.047244,-0.015748,-0.110236,-0.007874,0.055118,0.055118,0.03937,0.086614,0.015748,0.047244,0.023622,0.031496,-0.023622,-0.023622,0.,-0.031496,0.015748,-0.031496,-0.03937,-0.047244,-0.07874,-0.055118,-0.031496,-0.015748,-0.031496,-0.047244,-0.031496,-0.023622,0.031496,0.015748,-0.007874,0.023622,-0.007874,0.023622,-0.023622,-0.03937,0.,-0.007874,0.,-0.015748,-0.007874,-0.023622,-0.031496,0.023622,0.055118,-0.03937,-0.031496,-0.031496,0.031496,-0.023622,-0.03937,-0.023622,-0.023622,0.015748,0.070866,0.023622,0.047244,-0.023622,-0.070866,0.062992,-0.007874,-0.062992,0.055118,0.,-0.023622,0.007874,-0.055118,0.086614,-0.070866,-0.141732,-0.047244,-0.070866,-0.11811,0.181102,0.015748,0.086614,-0.181102,0.055118,0.11811,-0.03937,-0.023622,-0.03937,-0.015748,0.165354,-0.204724,0.031496,-0.023622,0.007874,0.149606,-0.055118,0.094488,-0.007874,-0.244094,-0.165354,0.212598,-0.102362,0.417323,0.228346,-0.19685,-0.070866,0.102362,-0.19685,-0.03937,-0.094488,0.,0.181102,-0.23622,0.007874,-0.047244,0.007874,-0.031496,-0.023622,-0.11811,-0.094488,-0.244094,0.133858,0.094488,-0.047244,0.574803,-0.228346,-0.03937,-0.015748,-0.023622,-0.149606,-0.03937,-0.094488,-0.141732,-0.07874,-0.07874,0.03937,0.094488,0.,0.133858,0.149606,-0.15748,0.125984,0.03937,-0.102362,-0.070866,0.094488,-0.023622,0.11811,-0.094488,0.03937,0.,0.023622,-0.047244,-0.023622,0.031496,-0.007874,0.,-0.047244,-0.047244,-0.047244,0.07874,0.,-0.03937,0.,0.015748,-0.07874,-0.007874,0.,-0.03937,0.007874,0.007874,-0.070866,0.102362,0.03937,-0.070866,0.023622,0.023622,0.,-0.03937,0.007874,0.03937,-0.055118,-0.023622,-0.047244,-0.07874,0.015748,-0.03937,0.,-0.015748,-0.015748,0.031496,-0.007874,-0.102362,-0.047244,0.102362,-0.07874,-0.07874,0.047244,-0.007874,0.031496,-0.007874,-0.062992,-0.015748,-0.007874,0.055118,-0.023622,-0.125984,-0.070866,0.11811,0.031496,-0.070866,-0.031496,0.007874,-0.07874,0.,0.015748,-0.070866,0.03937,-0.047244,-0.015748,0.133858,0.055118,0.094488,0.149606,0.244094,0.11811,0.173228,-0.181102,-0.015748,-0.173228,-0.094488,-0.228346,-0.291339,0.055118,-0.055118,0.330709,0.03937,-0.007874,0.03937,0.055118,0.023622,-0.110236,-0.070866,0.031496,-0.15748,0.102362,0.007874,0.,-0.070866,0.055118,0.070866,-0.070866,0.110236,-0.102362,-0.03937,0.133858,0.047244,-0.125984,-0.031496,-0.102362,0.062992,0.11811,-0.212598,0.007874,-0.15748,0.110236,0.047244,-0.11811,-0.055118,0.094488,-0.055118,-0.031496,-0.023622,-0.251969,0.149606,0.11811,-0.031496,-0.149606,0.070866,-0.047244,-0.007874,-0.03937,0.070866,0.,0.047244,-0.086614,-0.094488,0.07874,0.086614,-0.086614,-0.11811,0.055118,-0.023622,0.165354,0.11811,-0.055118,-0.062992,-0.023622,-0.15748,0.165354,-0.11811,0.023622,0.070866,-0.07874,-0.03937,-0.110236,0.007874,0.149606,-0.125984,-0.070866,-0.173228,0.11811,-0.015748,0.188976,-0.149606,0.03937,-0.055118,-0.149606,0.220472,-0.188976,-0.015748,0.031496,-0.244094,-0.173228,0.07874,-0.110236,0.582677,-0.259843,-0.03937,0.055118,0.070866,0.,0.173228,-0.062992,-0.11811,-0.031496,-0.007874,-0.023622,0.031496,-0.047244,0.015748,0.181102,-0.031496,-0.23622,-0.322835,0.094488,0.165354,-0.11811,0.094488,-0.015748,0.015748,-0.267717,-0.11811,-0.173228,0.094488,-0.267717,-0.267717,0.07874,0.385827,0.133858,0.133858,-0.03937,-0.795276,1.,0.015748,0.15748,0.047244,-0.086614,0.141732,0.165354,-0.259843,0.102362,-0.519685,-0.070866,0.771654,0.228346,-0.212598,0.070866,-0.377953,0.322835,-0.23622,0.228346,-0.133858,0.724409,0.110236,0.031496,-0.047244,-0.551181,0.685039,-0.535433,0.488189,0.330709,-0.015748,-0.417323,-0.322835,-0.338583,0.165354,0.086614,-0.314961,0.165354,-0.070866,-0.07874,-0.322835,0.417323,0.346457,-0.275591,0.267717,-0.519685,0.362205,-0.047244,-0.031496,0.299213,-0.228346,-0.346457,-0.11811,0.472441,0.259843,-0.19685,0.110236,-0.84252,0.559055,0.559055,-0.314961,-0.582677,-0.566929,0.787402,0.496063,-0.330709,0.141732,0.204724,0.062992,0.149606,-0.047244,-0.023622,-0.133858,-0.062992,0.062992,-0.007874,0.047244,-0.023622,0.023622,-0.267717,0.23622,-0.23622,-0.322835,0.299213,-0.007874,0.283465,-0.070866,-0.031496,-0.03937,0.015748,0.,-0.007874,0.007874,-0.03937,-0.031496,0.047244,-0.03937,0.007874,-0.023622,-0.047244,-0.047244,-0.015748,0.055118,-0.015748,-0.007874,-0.015748,0.007874,-0.023622,-0.023622,0.007874,0.007874,-0.015748,-0.023622,-0.007874,0.007874,0.015748,-0.007874,-0.023622,0.031496,0.007874,0.007874,-0.031496,-0.102362,-0.03937,0.070866,0.015748,0.015748,-0.023622,-0.015748,-0.007874,-0.007874,-0.031496,-0.015748,0.,0.007874,-0.007874,-0.015748,-0.007874,-0.007874,0.007874,-0.023622,0.007874,-0.015748,-0.015748,0.,0.,0.,-0.023622,0.,-0.023622,0.007874,-0.007874,-0.023622,-0.007874,-0.062992,0.,0.007874,0.031496,-0.007874,0.031496,-0.03937,-0.007874,0.023622,-0.023622,-0.007874,0.,-0.007874,-0.023622,0.,0.023622,-0.023622,-0.031496,0.062992,0.007874,-0.023622,-0.023622,0.023622,-0.023622,-0.023622,0.023622,-0.023622,0.031496,0.062992,-0.03937,-0.031496,-0.062992,-0.094488,0.094488,-0.07874,-0.102362,0.062992,0.007874,0.007874,-0.007874,-0.007874,-0.007874,-0.007874,-0.007874,-0.007874,-0.023622,-0.023622,0.070866,-0.031496,-0.031496,-0.007874,0.,0.,0.,-0.007874,0.,-0.007874,-0.007874,0.,-0.007874,-0.023622,-0.007874,0.023622,0.,-0.007874,-0.015748,-0.015748,0.,0.,-0.007874,0.,0.031496,-0.023622,-0.015748,-0.007874,-0.110236,0.023622,0.,0.007874,-0.015748,-0.023622,0.,0.,-0.007874,-0.031496,0.007874,0.007874,0.015748,0.007874,-0.015748,-0.031496,0.,-0.015748,-0.007874,0.007874,-0.007874,0.007874,0.,0.,0.007874,-0.031496,-0.047244,-0.015748,-0.03937,0.,0.015748,-0.007874,0.023622,-0.023622,-0.015748,-0.015748,-0.023622,-0.007874,0.,-0.007874,-0.023622,0.,-0.007874,0.,-0.023622,0.,0.,-0.007874,0.,-0.007874,0.,-0.03937,-0.007874,0.,-0.023622,-0.015748,-0.015748,-0.007874,-0.007874,-0.007874,-0.023622,0.007874,0.,0.015748,0.015748,-0.015748,-0.007874,-0.015748,0.015748,-0.007874,-0.007874,-0.007874,-0.015748,-0.007874,0.015748,0.,-0.031496,0.,-0.015748,0.,0.,0.007874,-0.015748,0.015748,-0.007874,-0.055118,0.007874,-0.023622,0.031496,0.,0.,-0.007874,-0.007874,0.,0.,-0.031496,-0.007874,-0.031496,-0.007874,0.,-0.023622,-0.015748,-0.015748,0.023622,-0.031496,0.015748,-0.031496,-0.023622,0.015748,0.007874,-0.007874,-0.007874,-0.007874,-0.023622,0.023622,-0.023622,0.,0.015748,-0.015748,-0.023622,0.015748,-0.007874,0.007874,0.007874,-0.023622,-0.015748,0.,0.,-0.03937,0.015748,-0.047244,0.,0.,0.007874,0.,0.,-0.015748,-0.007874,0.,-0.007874,-0.007874,-0.007874,0.,-0.015748,-0.055118,0.023622,-0.023622,0.,0.047244,-0.062992,-0.031496,0.015748,-0.015748,-0.007874,-0.023622,-0.007874,0.007874,-0.015748,0.015748,0.,-0.007874,0.007874,0.007874,-0.03937,0.007874,0.,-0.03937,0.007874,-0.007874,-0.023622,0.015748,0.,0.007874,-0.023622,-0.007874,0.015748,-0.007874,0.007874,0.,-0.023622,0.007874,-0.007874,-0.015748,-0.023622,-0.015748,0.007874,0.007874,0.,-0.007874,0.007874,-0.03937,-0.015748,-0.007874,-0.031496,-0.007874,-0.007874,0.,-0.007874,0.023622,-0.007874,-0.007874,-0.023622,-0.007874,-0.007874,0.,-0.015748,0.,0.007874,-0.03937,0.007874,0.007874,0.007874,0.,0.,-0.031496,-0.023622,0.,0.023622,-0.015748,-0.015748,-0.007874,-0.015748,-0.031496,-0.023622,0.015748,-0.015748,0.031496,-0.015748,0.,-0.031496,-0.031496,0.,-0.015748,-0.015748,0.,-0.023622,0.,0.007874,0.007874,0.023622,-0.007874,0.,0.007874,-0.023622
