repovizz,framerate=200
0.19685,-0.094488,0.07874,0.102362,0.03937,0.110236,0.11811,0.062992,0.062992,0.086614,0.023622,0.015748,0.188976,-0.007874,-0.047244,0.102362,0.023622,0.228346,0.055118,-0.03937,-0.03937,0.165354,0.031496,0.023622,-0.07874,-0.062992,-0.015748,0.007874,-0.070866,0.141732,-0.070866,-0.031496,0.,-0.070866,0.031496,-0.031496,-0.062992,0.031496,0.03937,-0.023622,-0.03937,-0.031496,0.,-0.023622,0.031496,0.062992,0.,-0.031496,0.07874,-0.141732,-0.11811,0.031496,-0.102362,0.165354,0.007874,0.015748,-0.062992,-0.031496,-0.007874,0.031496,0.110236,-0.220472,0.007874,0.086614,-0.047244,-0.047244,0.03937,0.031496,0.031496,0.133858,-0.03937,0.055118,0.047244,0.007874,0.015748,-0.031496,0.07874,0.,0.110236,-0.007874,0.015748,-0.03937,0.007874,-0.047244,0.047244,-0.007874,0.03937,0.110236,-0.133858,0.007874,0.015748,0.007874,0.062992,-0.047244,0.,0.047244,0.007874,0.,0.023622,0.031496,-0.007874,-0.070866,-0.007874,-0.023622,-0.07874,-0.07874,-0.031496,0.023622,0.015748,-0.031496,0.023622,-0.031496,0.007874,0.,0.047244,0.086614,0.023622,0.03937,0.062992,-0.023622,-0.047244,0.212598,0.,-0.03937,0.062992,-0.062992,0.015748,0.03937,-0.007874,0.220472,0.070866,-0.007874,0.023622,-0.023622,0.015748,0.023622,0.031496,-0.007874,0.03937,0.015748,0.007874,0.11811,-0.047244,0.055118,0.102362,-0.125984,0.007874,0.15748,0.031496,-0.086614,0.047244,0.007874,-0.031496,0.141732,0.03937,-0.015748,0.062992,-0.03937,-0.03937,0.062992,0.055118,-0.031496,-0.055118,0.015748,-0.03937,-0.015748,-0.015748,-0.023622,0.015748,-0.062992,-0.031496,0.031496,0.015748,0.,-0.031496,0.023622,-0.031496,-0.023622,-0.007874,-0.03937,-0.03937,0.015748,0.086614,-0.070866,-0.047244,-0.055118,-0.015748,0.031496,-0.062992,-0.062992,0.,-0.055118,0.,0.094488,-0.031496,0.125984,0.047244,0.055118,0.023622,0.110236,-0.007874,-0.023622,0.031496,-0.141732,0.015748,0.,-0.031496,-0.015748,0.023622,-0.007874,0.031496,0.03937,0.007874,0.015748,0.03937,0.070866,0.086614,-0.03937,0.11811,0.062992,-0.047244,0.125984,-0.007874,-0.047244,0.102362,0.047244,-0.015748,0.102362,0.102362,-0.03937,0.070866,0.133858,0.055118,0.055118,0.062992,0.023622,-0.094488,-0.015748,0.031496,0.007874,-0.102362,-0.425197,-0.456693,-0.614173,-0.228346,-0.417323,-0.543307,-0.322835,-0.543307,-0.03937,0.047244,-0.086614,0.031496,-0.023622,-0.031496,0.03937,0.055118,-0.031496,-0.031496,0.055118,-0.055118,-0.015748,-0.007874,-0.055118,-0.03937,0.,0.,0.03937,0.070866,-0.15748,-0.07874,0.015748,-0.023622,0.19685,0.07874,0.,0.055118,0.102362,-0.094488,0.007874,-0.015748,-0.007874,-0.007874,0.015748,0.015748,-0.070866,0.,-0.03937,0.094488,0.03937,-0.07874,-0.070866,0.03937,0.086614,0.125984,-0.007874,-0.062992,0.062992,0.,-0.031496,0.047244,0.070866,-0.007874,0.149606,0.086614,0.125984,0.133858,0.062992,0.,0.015748,0.,0.,0.07874,0.031496,0.102362,-0.102362,0.,0.07874,-0.023622,0.,0.11811,-0.070866,0.031496,-0.055118,0.055118,-0.015748,-0.03937,-0.07874,-0.102362,0.015748,-0.031496,-0.110236,-0.440945,-0.409449,-0.212598,0.023622,0.102362,0.212598,0.125984,0.23622,0.165354,0.110236,0.15748,0.181102,0.031496,0.070866,0.102362,0.125984,0.204724,0.23622,0.220472,0.283465,0.307087,-0.11811,-0.062992,-0.031496,-0.031496,-0.023622,-0.165354,0.102362,0.086614,0.055118,0.007874,-0.062992,-0.015748,0.062992,-0.055118,0.03937,0.125984,-0.031496,0.055118,0.023622,0.228346,-0.031496,0.055118,0.070866,-0.070866,0.322835,0.19685,0.291339,0.401575,0.299213,0.220472,0.181102,-0.149606,-0.267717,-0.188976,-0.283465,-0.244094,0.007874,-0.031496,-0.055118,-0.007874,0.070866,0.149606,0.007874,0.047244,-0.03937,-0.023622,-0.149606,-0.031496,0.047244,0.125984,0.086614,-0.173228,-0.007874,0.03937,0.015748,0.07874,-0.023622,-0.03937,-0.070866,0.094488,-0.11811,-0.015748,0.023622,-0.07874,-0.062992,-0.102362,0.023622,0.031496,0.07874,-0.062992,0.,-0.031496,0.023622,-0.015748,-0.047244,-0.062992,-0.173228,0.07874,-0.062992,-0.055118,-0.15748,0.15748,0.031496,0.070866,0.007874,-0.094488,0.15748,0.244094,-0.094488,0.133858,0.031496,-0.023622,0.007874,0.070866,0.133858,0.03937,-0.125984,-0.031496,0.047244,0.23622,0.299213,-0.322835,-0.03937,0.181102,-0.055118,0.055118,0.370079,0.149606,-0.07874,0.070866,0.015748,-0.03937,-0.15748,-0.086614,-0.125984,0.110236,0.133858,-0.511811,-0.322835,-0.291339,0.330709,0.535433,0.165354,-0.480315,0.03937,0.047244,-0.070866,0.047244,0.07874,-0.102362,-0.047244,0.015748,0.055118,-0.173228,0.023622,-0.007874,0.149606,-0.173228,0.07874,0.007874,-0.19685,0.377953,0.,-0.047244,-0.181102,0.110236,-0.007874,-0.11811,-0.047244,-0.055118,-0.11811,0.173228,-0.173228,0.133858,0.133858,0.149606,0.055118,-0.055118,-0.11811,-0.062992,0.086614,0.23622,0.062992,-0.314961,0.19685,0.110236,-0.070866,-0.047244,0.070866,0.023622,0.314961,-0.19685,0.047244,0.11811,-0.125984,0.417323,0.110236,-0.110236,-0.062992,0.133858,0.007874,-0.070866,-0.141732,0.188976,0.023622,0.11811,-0.070866,0.110236,-0.220472,-0.03937,-0.047244,-0.031496,-0.055118,-0.007874,0.23622,0.03937,-0.149606,-0.015748,-0.220472,-0.110236,-0.094488,0.141732,0.700787,-0.204724,-0.165354,0.133858,0.110236,0.094488,-0.188976,-0.015748,0.110236,-0.188976,-0.425197,-0.244094,0.173228,0.283465,0.283465,-0.102362,-0.173228,0.047244,0.228346,-0.047244,-0.15748,-0.244094,-0.086614,0.566929,0.094488,0.165354,-0.03937,-0.094488,0.015748,-0.15748,-0.433071,-0.023622,0.212598,0.133858,0.661417,0.015748,-0.511811,-0.007874,0.03937,-0.346457,-0.023622,-0.086614,0.322835,0.259843,-0.125984,-0.19685,0.023622,-0.204724,0.125984,0.102362,0.370079,-0.19685,-0.19685,-0.362205,-0.425197,-0.535433,-0.433071,-0.275591,-0.519685,-0.496063,-0.590551,-0.543307,-0.535433,-0.330709,-0.503937,-0.527559,-0.622047,-0.519685,-0.519685,-0.582677,-0.417323,-0.582677,-0.527559,-0.543307,-0.385827,0.094488,0.062992,0.023622,0.165354,0.141732,-0.047244,0.094488,0.031496,0.086614,0.149606,0.141732,-0.110236,-0.03937,0.244094,-0.031496,0.165354,0.165354,0.141732,0.070866,0.362205,0.314961,0.165354,0.377953,0.220472,0.259843,0.19685,0.307087,0.425197,0.062992,0.417323,-0.047244,-0.212598,0.283465,-0.086614,0.354331,0.015748,-0.094488,0.023622,-0.251969,0.212598,0.125984,0.141732,-0.141732,0.19685,-0.031496,0.023622,-0.141732,0.204724,0.11811,-0.031496,0.062992,-0.055118,-0.055118,0.165354,-0.228346,0.133858,-0.031496,-0.346457,0.653543,-0.440945,0.291339,0.015748,0.165354,-0.23622,0.047244,0.204724,-0.031496,0.165354,-0.11811,0.062992,0.015748,-0.086614,0.03937,-0.031496,0.023622,-0.141732,0.07874,-0.11811,-0.03937,0.102362,0.102362,-0.110236,0.015748,-0.15748,0.094488,0.047244,-0.031496,-0.244094,-0.007874,0.133858,0.055118,0.086614,-0.346457,0.094488,0.370079,0.204724,0.291339,0.244094,0.11811,0.291339,0.133858,0.283465,0.330709,0.511811,0.220472,0.228346,0.007874,0.047244,0.031496,-0.047244,0.03937,-0.023622,-0.062992,0.023622,0.11811,0.062992,0.031496,0.070866,0.007874,0.031496,0.007874,0.102362,0.031496,0.047244,0.031496,0.015748,0.070866,0.062992,0.094488,0.015748,0.055118,-0.015748,-0.015748,0.03937,-0.086614,-0.03937,0.133858,-0.133858,0.015748,0.062992,0.023622,-0.023622,0.086614,-0.015748,-0.047244,0.023622,-0.133858,0.102362,0.015748,0.007874,0.031496,-0.102362,-0.015748,0.023622,0.,0.070866,-0.07874,0.07874,0.015748,-0.070866,0.055118,0.031496,0.023622,0.,-0.03937,0.031496,0.023622,0.015748,0.047244,0.031496,-0.047244,0.031496,0.031496,-0.031496,-0.031496,0.015748,0.023622,0.031496,0.023622,0.023622,0.023622,0.070866,0.015748,0.086614,0.086614,0.031496,0.023622,0.125984,0.047244,0.007874,0.03937,0.03937,0.055118,0.133858,0.007874,-0.023622,0.094488,0.055118,0.188976,-0.055118,0.094488,0.062992,-0.023622,-0.031496,0.055118,0.031496,-0.062992,-0.094488,0.070866,-0.023622,-0.03937,-0.181102,0.070866,0.070866,0.125984,0.314961,-0.244094,-0.11811,-0.023622,-0.015748,0.031496,-0.023622,-0.047244,0.047244,0.03937,-0.133858,-0.047244,-0.062992,-0.102362,0.062992,-0.055118,0.03937,-0.07874,-0.173228,0.,-0.133858,0.023622,0.086614,0.102362,0.110236,0.125984,0.181102,0.401575,0.220472,0.133858,0.283465,0.212598,0.291339,0.251969,0.464567,0.19685,0.433071,0.267717,0.283465,0.377953,0.354331,0.393701,0.314961,0.370079,0.440945,0.385827,0.149606,0.047244,0.023622,-0.007874,0.007874,0.,-0.015748,-0.007874,0.007874,-0.015748,-0.007874,0.031496,0.031496,-0.047244,0.031496,0.031496,-0.055118,-0.228346,-0.456693,-0.480315,-0.456693,-0.566929,-0.503937,-0.566929,-0.511811,-0.519685,-0.496063,-0.551181,-0.456693,-0.535433,-0.566929,-0.496063,-0.700787,-0.362205,-0.456693,-0.204724,0.,0.181102,0.094488,0.031496,-0.03937,0.141732,0.165354,-0.015748,0.141732,0.125984,0.102362,0.070866,0.11811,0.055118,0.031496,0.055118,0.15748,0.03937,0.23622,0.102362,0.228346,0.11811,0.15748,0.425197,0.149606,0.299213,0.244094,0.188976,0.212598,0.338583,0.314961,0.440945,0.251969,0.204724,0.464567,0.488189,0.307087,0.330709,0.299213,-0.047244,0.370079,0.181102,0.007874,0.062992,-0.007874,0.086614,0.007874,-0.007874,0.062992,0.23622,0.007874,0.11811,-0.07874,0.015748,0.188976,-0.07874,-0.070866,0.015748,0.141732,0.220472,-0.07874,-0.094488,0.031496,0.015748,-0.062992,0.023622,-0.007874,-0.047244,0.314961,0.015748,-0.094488,-0.023622,-0.023622,-0.031496,0.047244,-0.062992,-0.19685,-0.125984,-0.070866,0.212598,0.220472,-0.086614,-0.125984,0.007874,0.102362,-0.141732,-0.133858,-0.007874,-0.03937,0.102362,-0.15748,0.173228,0.141732,0.181102,0.03937,0.047244,-0.047244,-0.03937,-0.015748,-0.464567,0.015748,0.070866,0.062992,0.070866,0.023622,-0.070866,-0.133858,0.031496,0.07874,0.031496,0.188976,-0.11811,0.03937,0.133858,0.125984,0.031496,-0.141732,0.11811,0.055118,-0.173228,-0.125984,0.007874,0.125984,0.204724,-0.141732,0.047244,0.275591,0.007874,0.19685,0.141732,-0.055118,-0.023622,-0.173228,0.03937,-0.070866,-0.11811,-0.055118,0.133858,0.149606,0.322835,-0.165354,0.,-0.03937,0.133858,-0.173228,-0.11811,0.055118,0.141732,0.173228,-0.031496,0.314961,-0.204724,0.291339,-0.070866,0.086614,-0.354331,-0.007874,0.102362,0.007874,-0.047244,-0.433071,0.173228,-0.07874,0.086614,0.244094,0.188976,-0.23622,0.062992,0.173228,-0.244094,-0.07874,-0.23622,0.448819,0.165354,-0.149606,0.149606,-0.188976,-0.15748,0.133858,-0.322835,0.102362,-0.047244,-0.212598,0.755906,-0.11811,-0.291339,0.330709,-0.125984,0.086614,0.,-0.03937,-0.15748,0.141732,0.070866,0.015748,0.015748,0.220472,0.165354,-0.03937,-0.047244,0.031496,-0.448819,-0.015748,0.015748,0.307087,0.244094,-0.23622,0.062992,0.354331,-0.19685,-0.086614,-0.07874,0.133858,0.102362,-0.409449,-0.393701,-0.275591,0.425197,-0.622047,0.086614,-0.228346,-0.102362,0.322835,-0.165354,-0.149606,0.07874,0.031496,0.070866,-0.629921,0.15748,0.19685,-0.047244,-0.456693,-0.173228,-0.173228,0.385827,0.346457,0.425197,-0.11811,0.165354,0.212598,0.19685,0.393701,0.425197,0.440945,-0.023622,-0.401575,0.212598,0.629921,-0.307087,-0.417323,-0.133858,0.11811,0.094488,-0.102362,-0.511811,-0.070866,0.377953,0.811024,-0.307087,0.19685,-0.015748,-0.07874,-0.165354,-0.173228,0.015748,0.212598,-0.07874,-0.141732,-0.007874,-0.094488,0.622047,-0.055118,0.086614,0.03937,-0.125984,-0.023622,0.023622,0.007874,-0.07874,0.267717,0.110236,-0.031496,0.165354,0.,-0.267717,-0.070866,-0.23622,0.023622,0.149606,-0.023622,-0.149606,0.181102,0.165354,-0.204724,0.070866,-0.19685,-0.173228,0.181102,-0.141732,-0.070866,0.055118,0.110236,0.094488,-0.11811,0.086614,-0.503937,0.464567,0.102362,0.102362,-0.086614,0.007874,0.055118,0.047244,0.283465,-0.15748,-0.165354,-0.110236,0.141732,0.204724,-0.102362,0.015748,-0.11811,-0.299213,0.055118,-0.165354,0.283465,-0.173228,0.,0.015748,-0.047244,-0.031496,-0.125984,-0.015748,0.094488,0.086614,0.165354,0.141732,-0.401575,-0.023622,0.299213,-0.047244,0.047244,0.133858,0.03937,0.110236,-0.070866,0.094488,0.07874,0.220472,-0.125984,0.062992,0.173228,-0.07874,0.566929,-0.031496,-0.346457,-0.031496,0.031496,-0.031496,0.015748,-0.19685,0.015748,0.204724,-0.03937,-0.086614,-0.212598,0.133858,-0.19685,0.181102,-0.023622,-0.11811,-0.031496,-0.070866,-0.141732,-0.07874,0.173228,-0.275591,0.03937,0.125984,-0.07874,-0.086614,-0.023622,-0.251969,0.110236,-0.047244,0.055118,0.,-0.047244,0.330709,-0.03937,-0.401575,0.055118,0.015748,-0.03937,-0.070866,-0.07874,-0.055118,-0.031496,0.015748,0.015748,0.07874,-0.086614,-0.015748,0.062992,-0.03937,0.133858,0.204724,-0.062992,0.,0.03937,0.094488,0.007874,0.,0.03937,0.031496,0.031496,0.03937,0.015748,0.03937,-0.007874,0.070866,0.055118,-0.070866,0.062992,0.015748,0.047244,0.047244,0.023622,0.031496,-0.015748,0.023622,-0.047244,-0.031496,0.007874,-0.03937,-0.007874,0.,-0.015748,0.007874,-0.055118,-0.07874,-0.007874,-0.03937,-0.03937,0.015748,-0.086614,-0.070866,-0.015748,0.031496,-0.03937,-0.03937,-0.086614,-0.062992,-0.070866,-0.062992,-0.062992,-0.023622,-0.007874,-0.047244,0.007874,0.,-0.031496,-0.047244,-0.015748,-0.07874,-0.031496,-0.086614,-0.03937,-0.086614,0.007874,-0.062992,-0.023622,0.007874,-0.165354,-0.086614,0.031496,-0.03937,-0.023622,0.023622,-0.03937,0.023622,0.062992,-0.055118,0.015748,0.031496,0.102362,0.007874,0.031496,-0.015748,0.062992,0.110236,-0.007874,0.015748,0.03937,0.023622,-0.023622,0.07874,0.047244,0.03937,-0.031496,0.03937,0.133858,-0.007874,0.,0.015748,0.03937,-0.055118,-0.007874,0.007874,0.062992,0.047244,0.070866,-0.007874,-0.031496,-0.07874,-0.015748,-0.062992,-0.094488,0.244094,0.110236,0.11811,-0.244094,-0.031496,-0.03937,0.015748,0.023622,-0.055118,-0.070866,-0.031496,0.023622,-0.023622,0.070866,-0.007874,-0.062992,-0.047244,0.015748,-0.03937,-0.102362,-0.007874,-0.062992,-0.047244,0.07874,-0.102362,0.094488,0.141732,0.244094,0.212598,0.23622,0.212598,0.125984,0.251969,0.322835,0.362205,0.377953,0.299213,0.055118,0.047244,-0.055118,0.031496,0.086614,-0.11811,-0.055118,0.,0.03937,0.047244,0.055118,0.11811,-0.062992,0.047244,0.133858,0.070866,0.023622,0.03937,0.047244,0.062992,0.110236,0.055118,0.062992,-0.03937,-0.007874,-0.023622,0.,0.015748,-0.102362,0.141732,-0.03937,-0.062992,0.07874,-0.102362,0.047244,0.133858,-0.031496,-0.086614,0.110236,-0.055118,-0.023622,0.007874,0.015748,-0.007874,-0.125984,-0.086614,-0.062992,-0.047244,-0.031496,-0.007874,0.031496,-0.07874,-0.047244,-0.03937,-0.07874,-0.007874,-0.047244,0.110236,0.,0.015748,-0.055118,-0.007874,0.,-0.070866,-0.03937,-0.03937,-0.007874,-0.055118,-0.007874,0.062992,-0.055118,-0.11811,0.007874,-0.055118,0.015748,-0.070866,0.110236,0.015748,-0.03937,-0.047244,-0.047244,-0.023622,0.094488,0.330709,0.362205,0.370079,0.291339,0.259843,0.299213,0.370079,0.251969,0.330709,0.377953,0.251969,0.275591,0.322835,0.244094,0.267717,0.07874,-0.314961,-0.251969,-0.19685,-0.15748,0.15748,-0.015748,-0.023622,-0.062992,-0.007874,-0.007874,-0.086614,0.086614,-0.031496,-0.062992,0.007874,-0.031496,0.031496,-0.062992,-0.055118,-0.03937,0.007874,0.070866,-0.007874,0.070866,0.007874,0.007874,0.023622,-0.062992,-0.07874,-0.031496,0.023622,0.,-0.023622,-0.094488,-0.086614,-0.15748,0.015748,-0.03937,0.086614,0.03937,-0.047244,0.031496,-0.141732,-0.047244,0.047244,0.055118,-0.062992,-0.015748,0.07874,0.015748,0.,-0.07874,-0.07874,0.165354,0.070866,0.173228,-0.015748,-0.047244,-0.102362,0.173228,0.181102,-0.070866,0.031496,-0.149606,0.023622,0.062992,-0.03937,0.110236,0.102362,-0.11811,-0.015748,0.212598,-0.102362,-0.110236,0.125984,0.110236,0.086614,0.07874,-0.062992,-0.007874,-0.047244,-0.07874,-0.015748,0.102362,0.07874,-0.212598,-0.299213,-0.055118,-0.165354,0.354331,-0.07874,-0.055118,0.031496,-0.188976,-0.354331,0.007874,0.07874,0.204724,0.440945,-0.188976,-0.086614,0.15748,-0.110236,-0.338583,-0.102362,0.19685,0.322835,-0.015748,0.110236,-0.23622,0.259843,0.228346,-0.133858,-0.322835,0.007874,0.07874,-0.125984,0.110236,-0.062992,0.314961,0.094488,-0.440945,-0.165354,0.015748,0.047244,0.251969,0.133858,0.,-0.023622,0.141732,0.007874,0.070866,0.15748,-0.259843,-0.023622,0.19685,0.11811,-0.007874,-0.141732,-0.086614,0.149606,0.07874,0.062992,-0.181102,-0.007874,-0.007874,-0.11811,0.102362,-0.188976,0.401575,0.094488,-0.314961,-0.070866,-0.031496,0.03937,0.110236,-0.204724,-0.125984,0.19685,-0.228346,0.228346,0.19685,0.062992,-0.283465,0.015748,0.086614,-0.212598,-0.007874,0.047244,0.047244,-0.244094,-0.220472,0.448819,0.283465,-0.409449,0.125984,0.07874,-0.094488,-0.338583,0.055118,0.181102,-0.11811,-0.15748,-0.385827,-0.094488,0.259843,0.480315,0.472441,-0.251969,-0.007874,0.629921,0.535433,-0.220472,-0.031496,0.417323,0.275591,0.188976,0.275591,0.291339,0.19685,0.354331,0.425197,0.267717,0.244094,0.212598,0.11811,0.062992,0.031496,-0.015748,-0.362205,0.377953,0.070866,-0.047244,0.047244,0.047244,0.031496,0.,0.047244,0.11811,0.23622,-0.07874,-0.007874,0.094488,-0.125984,0.299213,-0.03937,0.15748,-0.110236,-0.110236,0.007874,0.047244,0.125984,0.03937,-0.03937,-0.181102,0.055118,-0.055118,0.133858,0.007874,0.070866,0.11811,0.047244,0.023622,-0.03937,0.055118,-0.023622,-0.007874,0.055118,-0.070866,0.086614,0.086614,-0.07874,-0.07874,-0.125984,-0.031496,0.070866,0.015748,-0.125984,-0.275591,0.07874,0.047244,0.07874,-0.031496,0.,0.070866,-0.047244,-0.11811,0.094488,-0.110236,-0.015748,-0.062992,-0.181102,-0.102362,-0.11811,-0.149606,0.125984,-0.047244,0.141732,0.472441,-0.220472,-0.141732,0.007874,0.,0.314961,-0.220472,-0.125984,-0.047244,0.338583,-0.047244,-0.03937,0.031496,-0.15748,0.283465,-0.023622,0.141732,0.047244,0.047244,0.102362,0.15748,0.228346,0.055118,-0.228346,-0.055118,-0.456693,-0.275591,-0.173228,-0.425197,-0.385827,-0.275591,-0.314961,-0.582677,-0.503937,0.055118,0.102362,0.062992,0.047244,0.125984,-0.19685,0.047244,-0.023622,-0.03937,-0.023622,0.055118,-0.015748,0.031496,0.094488,0.007874,0.031496,0.047244,-0.015748,0.031496,-0.094488,-0.086614,-0.015748,-0.125984,0.031496,-0.015748,0.11811,-0.007874,0.007874,-0.007874,0.023622,0.03937,-0.047244,-0.094488,0.062992,0.047244,0.015748,0.,-0.102362,-0.031496,0.102362,0.047244,-0.023622,0.015748,0.110236,-0.023622,0.094488,0.023622,0.023622,0.007874,0.023622,0.07874,0.047244,0.094488,-0.110236,0.03937,0.102362,0.086614,0.141732,0.125984,0.007874,0.070866,0.07874,-0.102362,-0.015748,0.015748,-0.181102,0.055118,-0.031496,0.047244,-0.031496,-0.03937,-0.03937,-0.031496,0.15748,-0.031496,-0.015748,0.,-0.070866,0.015748,0.03937,-0.047244,-0.031496,-0.125984,0.031496,-0.015748,-0.055118,0.023622,-0.047244,-0.023622,0.,0.086614,0.023622,-0.047244,-0.062992,0.007874,0.086614,-0.007874,0.015748,0.023622,-0.149606,-0.047244,0.055118,-0.031496,-0.023622,-0.031496,-0.03937,-0.007874,-0.086614,-0.015748,-0.070866,0.149606,-0.11811,-0.062992,0.102362,0.007874,0.19685,0.031496,-0.070866,0.015748,0.141732,0.062992,0.133858,0.,0.086614,0.283465,0.417323,0.330709,0.393701,0.370079,0.23622,0.212598,0.314961,0.267717,0.299213,0.330709,0.283465,0.299213,0.055118,-0.370079,-0.133858,-0.23622,0.03937,-0.015748,-0.110236,-0.047244,0.023622,0.015748,0.03937,-0.07874,-0.094488,-0.031496,-0.023622,-0.086614,-0.212598,0.03937,0.031496,-0.173228,-0.007874,-0.047244,-0.023622,0.062992,0.007874,-0.07874,-0.015748,0.055118,-0.141732,0.015748,-0.055118,-0.062992,-0.031496,0.023622,-0.023622,0.070866,0.15748,0.062992,-0.023622,-0.070866,-0.03937,-0.055118,-0.023622,-0.007874,-0.015748,-0.015748,-0.031496,0.03937,-0.047244,-0.141732,0.015748,0.062992,0.047244,0.07874,0.062992,0.007874,0.102362,0.11811,0.062992,0.007874,-0.031496,0.062992,-0.070866,0.055118,0.015748,-0.007874,0.055118,0.015748,0.055118,0.062992,-0.007874,0.141732,0.023622,0.055118,0.07874,0.110236,-0.141732,-0.007874,-0.086614,0.015748,0.141732,-0.031496,-0.055118,0.031496,-0.007874,-0.149606,-0.102362,-0.425197,-0.464567,-0.472441,-0.551181,-0.551181,-0.496063,-0.440945,-0.511811,-0.637795,-0.519685,-0.496063,-0.590551,-0.622047,-0.503937,-0.307087,-0.007874,0.07874,0.07874,0.141732,0.299213,0.086614,0.267717,0.070866,0.062992,0.220472,0.173228,0.125984,0.228346,0.228346,0.220472,0.299213,0.11811,0.149606,0.047244,-0.133858,-0.062992,0.,0.055118,0.047244,-0.007874,-0.086614,0.055118,0.023622,-0.212598,-0.070866,0.133858,0.181102,0.173228,0.070866,-0.11811,-0.102362,0.385827,0.464567,0.330709,0.283465,0.094488,-0.062992,0.023622,0.094488,0.165354,0.007874,-0.023622,-0.007874,-0.023622,0.125984,0.031496,-0.023622,-0.023622,0.,0.007874,0.11811,0.094488,0.047244,-0.181102,-0.047244,0.086614,0.031496,0.19685,-0.110236,-0.102362,-0.03937,-0.055118,0.007874,0.03937,0.062992,0.070866,0.03937,0.070866,0.023622,-0.015748,0.007874,-0.015748,0.03937,0.031496,-0.007874,0.031496,0.007874,0.023622,-0.07874,-0.141732,-0.110236,0.125984,0.212598,0.070866,0.377953,0.110236,0.267717,0.133858,0.102362,0.149606,0.275591,0.181102,0.007874,0.291339,0.291339,0.291339,0.377953,0.244094,0.212598,0.496063,0.346457,0.307087,0.204724,0.385827,0.307087,0.283465,0.220472,0.259843,0.259843,0.299213,0.188976,0.204724,0.244094,0.346457,0.267717,0.338583,0.165354,0.15748,0.385827,-0.330709,-0.425197,-0.425197,-0.11811,-0.307087,-0.543307,-0.385827,-0.259843,-0.15748,-0.370079,0.031496,0.047244,0.031496,0.141732,-0.11811,0.19685,0.047244,-0.102362,-0.086614,-0.023622,0.330709,0.007874,0.03937,-0.125984,0.055118,0.133858,-0.15748,-0.070866,-0.055118,0.125984,0.086614,-0.03937,-0.125984,-0.07874,-0.007874,0.055118,-0.07874,0.031496,-0.11811,-0.15748,-0.023622,-0.133858,0.102362,-0.062992,-0.165354,0.047244,-0.007874,-0.133858,-0.133858,0.031496,0.212598,0.11811,-0.023622,-0.015748,-0.125984,0.03937,-0.062992,0.267717,0.062992,0.173228,0.070866,0.149606,-0.055118,0.047244,0.149606,0.062992,-0.047244,0.055118,-0.015748,-0.031496,0.031496,0.15748,0.070866,0.055118,0.015748,0.220472,0.15748,-0.11811,0.031496,-0.133858,0.007874,0.023622,0.188976,0.125984,-0.307087,0.,0.07874,0.007874,0.007874,0.055118,-0.259843,-0.062992,0.070866,0.267717,-0.055118,-0.133858,0.047244,0.,0.330709,-0.173228,0.015748,-0.125984,-0.062992,0.11811,-0.291339,0.03937,-0.031496,0.11811,-0.094488,-0.204724,-0.291339,-0.15748,0.543307,-0.15748,0.212598,-0.251969,-0.015748,0.425197,-0.448819,-0.464567,-0.133858,0.,0.448819,0.23622,-0.212598,-0.149606,0.086614,0.055118,-0.031496,0.,0.125984,0.267717,-0.03937,0.165354,-0.007874,0.102362,-0.19685,-0.07874,0.251969,0.275591,0.070866,-0.062992,-0.102362,-0.244094,0.716535,0.165354,0.023622,-0.023622,0.023622,-0.023622,-0.149606,0.291339,0.173228,0.102362,-0.007874,0.007874,0.07874,-0.133858,-0.086614,0.047244,0.149606,0.055118,0.015748,0.023622,-0.244094,0.23622,0.188976,-0.094488,0.055118,0.055118,0.094488,-0.031496,-0.094488,-0.181102,-0.023622,-0.086614,0.110236,0.19685,-0.125984,-0.23622,-0.173228,-0.070866,-0.267717,0.212598,-0.070866,-0.125984,0.062992,0.188976,-0.110236,-0.19685,0.07874,0.007874,0.188976,0.307087,-0.299213,-0.299213,0.267717,-0.23622,0.086614,-0.141732,-0.055118,0.094488,-0.015748,-0.133858,0.165354,0.094488,-0.070866,0.141732,0.228346,0.062992,-0.023622,0.031496,-0.094488,0.03937,0.472441,0.110236,0.03937,-0.228346,-0.023622,0.307087,-0.299213,0.385827,0.307087,-0.165354,0.086614,0.062992,-0.015748,0.086614,-0.031496,-0.314961,0.031496,0.055118,-0.212598,0.212598,0.023622,-0.023622,-0.007874,-0.173228,-0.03937,0.047244,-0.007874,0.,-0.031496,-0.031496,0.023622,-0.007874,-0.015748,-0.03937,0.03937,0.015748,0.094488,-0.181102,0.220472,0.03937,-0.047244,0.03937,0.031496,-0.133858,-0.031496,0.055118,-0.188976,0.15748,-0.086614,0.086614,-0.149606,0.102362,-0.047244,-0.031496,0.015748,0.070866,-0.007874,-0.023622,-0.015748,-0.110236,0.11811,-0.07874,-0.070866,0.141732,0.007874,-0.007874,0.11811,-0.062992,0.03937,0.023622,0.094488,0.055118,0.007874,0.03937,0.062992,0.110236,0.,-0.015748,0.07874,-0.007874,0.047244,0.141732,-0.007874,0.133858,0.055118,0.015748,-0.047244,-0.094488,-0.047244,0.,0.023622,-0.031496,-0.047244,-0.03937,0.023622,0.031496,-0.015748,-0.047244,0.03937,-0.023622,-0.031496,0.055118,0.03937,0.062992,-0.007874,0.023622,-0.015748,0.,0.062992,0.,0.023622,-0.094488,-0.055118,0.03937,0.015748,-0.11811,0.,-0.007874,-0.03937,-0.031496,0.070866,-0.062992,-0.031496,-0.102362,0.023622,0.015748,0.03937,-0.141732,-0.015748,-0.031496,0.094488,-0.070866,0.03937,-0.047244,-0.07874,-0.015748,-0.047244,0.125984,0.047244,0.023622,0.055118,0.007874,-0.03937,0.181102,-0.015748,0.15748,-0.015748,0.15748,0.047244,0.133858,-0.007874,0.094488,0.015748,0.015748,0.11811,0.15748,0.,0.023622,0.102362,0.173228,0.15748,-0.023622,-0.047244,0.,-0.031496,-0.007874,0.070866,-0.015748,0.015748,-0.047244,0.,-0.055118,-0.055118,-0.031496,-0.015748,-0.094488,0.023622,-0.047244,0.086614,0.007874,-0.015748,0.07874,-0.055118,0.023622,0.015748,-0.055118,0.031496,0.03937,-0.07874,0.007874,0.015748,-0.125984,0.086614,0.,0.015748,0.047244,-0.007874,0.031496,0.047244,-0.062992,-0.023622,0.031496,-0.007874,-0.023622,-0.070866,-0.070866,-0.023622,0.070866,-0.094488,-0.015748,0.07874,0.062992,-0.007874,0.07874,0.031496,-0.007874,0.03937,0.07874,-0.015748,0.007874,0.055118,-0.047244,0.070866,0.055118,-0.031496,0.007874,0.070866,0.047244,0.015748,0.125984,-0.023622,0.03937,0.102362,-0.047244,0.047244,0.031496,-0.062992,-0.015748,0.031496,-0.110236,0.03937,0.062992,-0.047244,0.086614,-0.007874,-0.031496,0.007874,0.,-0.03937,-0.062992,0.015748,-0.007874,-0.031496,0.,-0.133858,-0.07874,0.086614,-0.062992,-0.03937,0.141732,-0.031496,-0.086614,-0.023622,0.070866,0.007874,-0.023622,-0.102362,-0.094488,0.,0.055118,-0.173228,-0.094488,0.015748,0.,0.314961,-0.070866,-0.047244,0.03937,0.102362,0.,0.03937,0.094488,-0.047244,0.,0.007874,0.,-0.023622,-0.094488,-0.086614,0.023622,0.094488,0.094488,0.031496,-0.03937,0.110236,-0.007874,0.110236,0.015748,0.031496,0.055118,-0.133858,0.125984,-0.023622,0.03937,0.055118,0.062992,0.07874,0.11811,0.094488,-0.007874,0.055118,-0.07874,-0.094488,-0.007874,0.03937,-0.015748,-0.007874,-0.03937,-0.055118,0.055118,-0.023622,-0.023622,-0.023622,0.,-0.023622,-0.007874,-0.070866,-0.15748,0.031496,0.,-0.086614,0.015748,-0.094488,-0.055118,0.,0.,-0.047244,-0.047244,0.023622,-0.047244,0.023622,0.086614,0.,0.055118,-0.062992,-0.086614,0.07874,0.141732,0.19685,0.188976,0.19685,0.07874,-0.070866,0.055118,0.070866,0.244094,0.425197,0.322835,0.149606,-0.031496,0.047244,0.094488,0.11811,-0.047244,-0.070866,-0.03937,0.03937,0.102362,0.055118,0.110236,-0.125984,0.173228,0.,0.,0.125984,0.03937,0.055118,0.086614,0.149606,0.07874,0.070866,0.062992,0.102362,0.173228,0.03937,0.094488,-0.15748,-0.007874,-0.007874,-0.07874,0.062992,0.03937,-0.055118,-0.015748,-0.007874,-0.03937,-0.023622,0.03937,0.,-0.086614,0.110236,-0.07874,0.07874,-0.094488,-0.062992,-0.023622,-0.023622,-0.055118,0.03937,0.031496,0.007874,-0.047244,0.007874,0.062992,0.023622,0.007874,-0.03937,-0.062992,-0.047244,0.,-0.03937,-0.055118,-0.023622,-0.031496,-0.03937,0.03937,-0.07874,-0.070866,0.03937,-0.015748,-0.062992,0.023622,-0.047244,-0.015748,0.133858,-0.031496,0.015748,0.03937,0.007874,-0.047244,0.023622,0.023622,0.023622,0.086614,-0.070866,-0.015748,0.23622,0.354331,0.322835,0.409449,0.393701,0.307087,0.299213,0.362205,0.314961,0.393701,0.314961,0.314961,0.259843,0.11811,0.062992,0.023622,0.023622,-0.047244,-0.047244,-0.023622,-0.07874,-0.007874,-0.023622,-0.023622,-0.03937,-0.141732,0.007874,-0.015748,0.031496,0.007874,-0.031496,-0.031496,0.125984,-0.086614,0.007874,0.007874,-0.031496,0.007874,0.015748,0.,0.055118,-0.070866,0.,-0.03937,-0.149606,0.015748,0.,0.015748,0.047244,-0.03937,0.007874,-0.070866,0.015748,-0.007874,0.,0.141732,-0.165354,-0.023622,-0.031496,-0.023622,-0.031496,0.055118,0.062992,0.385827,0.362205,0.338583,0.330709,0.448819,0.267717,0.385827,0.354331,0.314961,0.535433,0.393701,0.338583,-0.015748,0.15748,0.070866,0.03937,0.055118,0.055118,0.062992,0.055118,0.228346,0.015748,0.,-0.015748,-0.047244,-0.047244,-0.015748,0.015748,-0.031496,-0.086614,-0.015748,-0.023622,-0.070866,0.03937,0.03937,-0.047244,-0.047244,-0.023622,-0.086614,0.03937,-0.015748,0.,-0.055118,-0.03937,-0.047244,-0.023622,-0.070866,0.023622,-0.031496,-0.031496,0.007874,-0.031496,0.047244,-0.173228,-0.031496,-0.055118,-0.031496,-0.070866,-0.047244,-0.047244,-0.094488,-0.031496,-0.086614,-0.062992,-0.023622,0.015748,0.007874,-0.047244,0.03937,-0.070866,-0.094488,0.007874,-0.023622,0.03937,0.03937,0.023622,0.015748,-0.015748,0.047244,0.047244,0.03937,0.023622,0.047244,0.055118,0.023622,0.055118,-0.031496,0.062992,0.03937,-0.007874,0.047244,0.062992,0.031496,0.07874,0.047244,0.007874,0.031496,0.03937,-0.023622,0.007874,-0.023622,-0.094488,-0.031496,0.007874,-0.047244,-0.015748,0.031496,-0.133858,-0.062992,-0.007874,-0.086614,-0.031496,-0.03937,-0.03937,-0.03937,-0.047244,-0.070866,0.007874,-0.062992,-0.125984,-0.07874,-0.062992,0.031496,-0.023622,-0.110236,-0.031496,0.03937,-0.007874,0.19685,0.086614,0.07874,0.125984,0.11811,0.110236,0.141732,0.181102,0.102362,0.173228,0.204724,0.165354,0.244094,0.385827,0.251969,0.314961,0.23622,-0.070866,0.015748,0.,0.031496,0.102362,0.031496,-0.047244,0.031496,-0.007874,0.007874,0.070866,0.047244,0.055118,0.07874,-0.031496,0.031496,0.,0.007874,0.125984,0.062992,0.047244,0.055118,-0.007874,0.07874,-0.023622,0.07874,0.102362,0.070866,-0.023622,-0.023622,0.070866,-0.055118,-0.047244,0.023622,0.031496,-0.125984,0.007874,-0.007874,-0.055118,0.086614,0.015748,-0.023622,0.047244,0.015748,-0.110236,-0.062992,-0.015748,-0.133858,-0.047244,-0.023622,-0.047244,-0.023622,-0.023622,-0.031496,-0.031496,0.023622,0.141732,-0.055118,0.,-0.03937,-0.015748,0.031496,-0.023622,-0.070866,0.,0.,-0.062992,-0.055118,-0.047244,-0.015748,0.086614,0.023622,-0.03937,0.,-0.047244,-0.070866,-0.03937,-0.125984,0.007874,0.062992,0.007874,0.023622,0.07874,0.385827,0.401575,0.425197,0.385827,0.377953,0.393701,0.377953,0.322835,0.283465,0.401575,0.330709,0.251969,0.102362,0.007874,0.070866,0.047244,0.031496,-0.007874,0.023622,0.094488,0.015748,0.031496,0.03937,-0.086614,0.023622,0.023622,0.007874,0.062992,-0.031496,0.007874,-0.03937,0.055118,0.,0.047244,0.031496,0.007874,0.055118,0.007874,0.03937,0.015748,-0.03937,-0.015748,0.,0.055118,-0.047244,-0.007874,-0.055118,-0.031496,0.007874,-0.047244,0.007874,-0.03937,0.015748,-0.023622,-0.07874,-0.03937,-0.015748,-0.007874,0.055118,-0.023622,-0.086614,-0.015748,-0.047244,-0.055118,-0.055118,-0.007874,-0.023622,-0.023622,-0.023622,-0.070866,0.062992,0.015748,0.015748,0.055118,0.023622,-0.031496,-0.086614,-0.094488,-0.11811,0.015748,0.015748,0.102362,0.031496,-0.055118,0.023622,0.015748,-0.03937,0.102362,0.062992,-0.007874,0.086614,0.07874,0.015748,-0.086614,0.062992,-0.047244,0.,-0.03937,-0.03937,-0.031496,0.03937,-0.07874,0.086614,-0.062992,0.062992,0.062992,-0.055118,-0.007874,0.11811,-0.086614,0.070866,0.055118,-0.007874,-0.03937,-0.007874,-0.110236,0.062992,0.188976,-0.07874,-0.125984,-0.511811,-0.362205,-0.220472,0.15748,0.,0.188976,0.086614,0.125984,0.188976,0.299213,0.220472,0.19685,0.204724,0.283465,0.220472,0.212598,0.188976,-0.03937,0.062992,0.031496,-0.015748,0.,-0.023622,0.,-0.102362,-0.047244,0.03937,-0.03937,-0.007874,0.007874,-0.031496,0.,-0.031496,0.,0.015748,-0.023622,0.023622,-0.062992,0.055118,0.047244,-0.03937,-0.007874,-0.03937,0.007874,0.023622,0.173228,0.102362,0.086614,0.023622,-0.094488,0.03937,-0.070866,-0.007874,-0.110236,0.031496,-0.007874,-0.007874,0.047244,-0.023622,-0.070866,0.094488,0.,-0.141732,0.031496,-0.047244,-0.094488,0.055118,0.062992,-0.031496,-0.047244,-0.070866,0.007874,0.015748,0.047244,0.015748,0.007874,-0.023622,-0.149606,-0.023622,0.023622,-0.03937,0.125984,-0.031496,-0.015748,-0.062992,-0.047244,0.031496,-0.031496,-0.023622,-0.047244,0.,-0.007874,0.062992,0.03937,-0.015748,-0.094488,0.,0.031496,0.015748,0.055118,0.03937,-0.070866,0.062992,0.015748,0.031496,0.047244,0.055118,0.047244,0.031496,0.086614,0.03937,0.07874,0.047244,0.062992,0.062992,-0.007874,0.03937,0.094488,0.141732,0.086614,0.023622,0.07874,0.102362,0.007874,-0.007874,-0.055118,-0.125984,-0.007874,-0.070866,-0.031496,0.,-0.03937,-0.007874,-0.070866,0.015748,-0.03937,-0.047244,-0.031496,0.055118,-0.007874,0.055118,-0.007874,0.03937,-0.015748,-0.055118,-0.015748,-0.086614,-0.047244,-0.015748,0.007874,0.015748,0.023622,0.023622,-0.055118,0.015748,0.015748,-0.102362,-0.055118,-0.11811,-0.047244,0.03937,-0.07874,-0.031496,0.03937,-0.07874,0.031496,0.03937,-0.11811,-0.03937,-0.015748,-0.07874,-0.015748,0.055118,0.007874,-0.070866,0.062992,-0.07874,0.023622,0.102362,-0.055118,0.015748,0.03937,-0.03937,0.023622,0.047244,0.023622,0.102362,-0.007874,0.023622,0.03937,0.023622,-0.055118,0.007874,0.03937,0.047244,-0.007874,0.031496,0.07874,0.,-0.141732,-0.03937,-0.062992,0.023622,0.07874,-0.094488,-0.031496,0.047244,0.070866,-0.110236,-0.007874,-0.007874,-0.11811,-0.11811,-0.07874,-0.047244,0.,-0.062992,-0.055118,0.,-0.03937,0.03937,0.062992,0.,-0.086614,0.070866,-0.141732,-0.062992,0.031496,-0.023622,-0.015748,0.047244,-0.070866,-0.03937,-0.031496,-0.007874,-0.023622,-0.023622,-0.015748,-0.086614,-0.125984,-0.094488,-0.094488,-0.070866,-0.031496,-0.086614,-0.086614,-0.007874,0.031496,-0.031496,0.031496,-0.062992,0.015748,-0.094488,0.023622,-0.055118,0.047244,0.007874,-0.062992,-0.055118,0.03937,0.015748,-0.007874,-0.007874,0.023622,-0.047244,0.094488,0.070866,-0.086614,0.007874,0.094488,0.062992,0.023622,0.070866,-0.023622,-0.023622,0.007874,-0.03937,0.125984,0.062992,-0.086614,-0.055118,0.007874,-0.031496,-0.047244,0.,-0.11811,-0.007874,-0.03937,0.,-0.125984,-0.015748,-0.110236,-0.07874,0.007874,-0.094488,-0.047244,-0.11811,-0.007874,-0.062992,-0.055118,-0.015748,-0.055118,0.03937,-0.031496,-0.015748,-0.03937,-0.102362,0.,-0.015748,-0.102362,-0.125984,-0.070866,-0.015748,-0.086614,-0.031496,-0.03937,-0.03937,-0.015748,0.007874,-0.015748,-0.07874,-0.047244,-0.015748,-0.03937,-0.086614,0.11811,0.03937,-0.086614,0.031496,-0.03937,0.015748,-0.031496,-0.07874,0.023622,-0.015748,-0.007874,0.007874,-0.015748,-0.007874,0.055118,-0.031496,-0.03937,-0.03937,0.055118,0.094488,0.031496,0.141732,0.110236,0.,0.023622,-0.133858,-0.11811,-0.149606,-0.015748,-0.102362,-0.031496,0.,0.110236,-0.133858,0.,0.031496,-0.448819,-0.440945,-0.464567,-0.464567,0.007874,-0.102362,0.188976,0.133858,-0.110236,-0.102362,-0.055118,0.023622,-0.070866,-0.015748,-0.086614,-0.062992,-0.007874,-0.015748,-0.094488,-0.015748,-0.015748,0.062992,0.015748,-0.007874,0.007874,-0.062992,0.015748,0.023622,0.023622,0.047244,0.141732,-0.007874,-0.03937,0.,-0.023622,-0.023622,-0.055118,-0.023622,0.086614,0.110236,-0.015748,-0.03937,0.070866,0.055118,-0.07874,0.094488,0.125984,0.15748,-0.015748,0.,0.15748,-0.031496,0.023622,0.007874,-0.031496,0.031496,-0.031496,-0.149606,0.03937,0.15748,0.23622,0.228346,-0.125984,-0.03937,0.133858,-0.007874,-0.062992,-0.023622,-0.070866,-0.007874,0.031496,0.,0.015748,-0.055118,0.,-0.15748,0.086614,0.047244,0.165354,-0.228346,-0.086614,-0.047244,-0.031496,0.047244,0.007874,0.275591,-0.086614,0.267717,-0.141732,0.11811,-0.110236,0.141732,-0.015748,0.007874,-0.11811,0.03937,0.141732,-0.125984,0.102362,-0.055118,-0.07874,-0.047244,0.370079,-0.212598,0.322835,-0.15748,-0.094488,-0.062992,-0.086614,-0.031496,0.047244,0.07874,-0.19685,0.433071,0.047244,0.047244,-0.125984,-0.031496,0.015748,-0.015748,0.015748,0.03937,0.055118,-0.11811,-0.03937,0.220472,0.149606,-0.204724,-0.181102,-0.031496,0.244094,0.283465,0.141732,-0.188976,-0.007874,0.086614,0.362205,0.015748,0.023622,-0.03937,0.03937,0.165354,-0.070866,-0.07874,0.03937,0.015748,-0.023622,-0.23622,-0.212598,-0.496063,-0.685039,-0.543307,-0.653543,-0.559055,-0.724409,-0.574803,-0.464567,-0.543307,-0.472441,-0.165354,-0.80315,-0.606299,-0.417323,-0.653543,0.,-0.377953,-0.314961,0.11811,0.007874,0.149606,0.15748,0.,0.110236,0.267717,0.07874,0.220472,0.188976,-0.023622,-0.031496,-0.03937,-0.031496,-0.007874,0.015748,0.055118,0.086614,0.133858,-0.031496,0.094488,-0.251969,-0.125984,0.062992,0.181102,0.007874,-0.055118,-0.007874,0.03937,0.031496,0.031496,-0.070866,0.086614,0.307087,-0.03937,-0.102362,0.055118,0.062992,-0.110236,0.283465,-0.070866,-0.11811,0.181102,-0.023622,-0.086614,0.047244,0.110236,-0.07874,-0.055118,-0.03937,-0.023622,-0.133858,-0.055118,0.181102,0.173228,0.23622,-0.299213,-0.362205,-0.023622,0.055118,-0.015748,0.251969,-0.149606,-0.03937,-0.102362,0.212598,-0.03937,-0.07874,-0.291339,-0.023622,0.070866,0.354331,0.480315,-0.244094,0.110236,0.15748,0.062992,-0.283465,-0.267717,-0.062992,0.15748,0.102362,-0.070866,0.133858,0.181102,0.283465,0.204724,0.125984,0.322835,0.055118,0.425197,0.031496,-0.031496,-0.031496,0.062992,0.086614,0.070866,-0.007874,0.015748,0.102362,-0.062992,-0.11811,0.031496,0.023622,-0.055118,0.094488,0.007874,0.094488,0.055118,-0.188976,0.133858,0.047244,0.086614,0.015748,-0.007874,0.11811,0.007874,0.007874,0.023622,-0.094488,-0.062992,0.007874,0.133858,0.015748,0.007874,-0.125984,0.031496,0.,0.031496,0.165354,0.047244,-0.03937,0.,0.141732,0.,-0.007874,0.023622,-0.015748,-0.015748,-0.023622,-0.03937,0.,0.023622,0.015748,0.023622,0.031496,-0.015748,-0.023622,0.062992,-0.015748,0.007874,0.03937,-0.07874,0.,0.007874,-0.07874,0.015748,-0.055118,-0.070866,-0.015748,0.031496,-0.165354,-0.03937,0.023622,-0.094488,0.133858,-0.023622,-0.086614,-0.03937,0.023622,-0.031496,0.047244,0.047244,-0.102362,0.023622,0.062992,-0.055118,0.015748,0.047244,0.062992,0.031496,0.165354,0.102362,0.055118,0.,0.141732,0.055118,0.086614,0.062992,0.11811,0.023622,0.133858,0.015748,0.102362,0.070866,-0.031496,0.03937,-0.015748,-0.03937,0.094488,-0.070866,-0.110236,0.015748,0.047244,0.149606,-0.062992,-0.070866,-0.070866,0.015748,-0.165354,0.,-0.031496,-0.007874,-0.086614,0.055118,-0.141732,-0.181102,0.023622,-0.062992,-0.086614,0.,-0.102362,-0.102362,0.07874,0.047244,-0.244094,-0.055118,0.070866,-0.062992,0.125984,-0.062992,-0.03937,-0.110236,0.,-0.023622,-0.055118,0.023622,-0.015748,0.110236,-0.031496,-0.015748,-0.031496,0.007874,-0.125984,0.03937,0.259843,-0.031496,0.007874,0.015748,0.007874,-0.047244,0.,-0.070866,-0.047244,0.031496,0.055118,-0.031496,0.094488,-0.031496,0.125984,0.133858,-0.047244,0.141732,0.062992,-0.125984,0.228346,0.070866,0.03937,0.165354,-0.023622,0.062992,0.094488,0.055118,-0.094488,0.015748,0.015748,-0.055118,0.062992,-0.007874,-0.11811,-0.055118,-0.480315,-0.511811,-0.401575,-0.480315,-0.496063,-0.480315,-0.535433,-0.511811,-0.511811,-0.519685,-0.496063,-0.370079,0.,0.023622,0.094488,0.015748,-0.070866,-0.047244,-0.047244,-0.07874,-0.015748,-0.015748,0.007874,0.07874,0.070866,-0.07874,-0.070866,0.03937,0.,0.047244,0.023622,-0.047244,-0.070866,0.031496,0.015748,0.007874,0.023622,-0.023622,-0.023622,0.110236,0.055118,0.031496,-0.031496,-0.031496,-0.023622,0.07874,-0.062992,-0.149606,0.094488,0.07874,0.220472,0.031496,0.047244,0.,0.07874,0.007874,-0.007874,0.181102,0.07874,0.015748,0.11811,0.086614,0.047244,0.102362,-0.015748,0.094488,-0.055118,-0.023622,0.015748,-0.125984,0.055118,0.125984,0.094488,-0.188976,-0.110236,-0.086614,0.094488,0.,-0.133858,-0.173228,0.03937,0.070866,-0.173228,-0.023622,0.015748,0.023622,-0.141732,0.015748,0.094488,0.133858,-0.19685,0.007874,0.,0.070866,-0.070866,-0.354331,-0.212598,0.15748,0.582677,0.377953,-0.015748,-0.283465,0.385827,0.267717,-0.220472,0.007874,0.228346,-0.070866,-0.165354,-0.023622,0.07874,-0.188976,-0.07874,0.11811,0.141732,0.047244,-0.023622,0.023622,0.181102,0.023622,-0.291339,-0.370079,0.15748,0.330709,0.401575,-0.11811,-0.259843,-0.149606,0.244094,0.15748,-0.149606,-0.094488,0.070866,0.007874,0.023622,0.165354,-0.204724,-0.094488,-0.031496,0.346457,0.244094,0.11811,-0.212598,0.007874,-0.055118,0.094488,0.102362,-0.007874,0.110236,-0.173228,0.015748,0.228346,-0.062992,-0.125984,-0.212598,-0.23622,0.181102,0.149606,-0.07874,-0.125984,-0.023622,-0.031496,-0.062992,-0.141732,0.125984,-0.023622,-0.055118,-0.314961,-0.086614,0.275591,0.488189,0.307087,-0.488189,0.149606,0.07874,-0.125984,-0.031496,0.031496,0.11811,-0.259843,-0.007874,0.094488,-0.031496,-0.125984,-0.181102,-0.149606,-0.03937,0.055118,0.031496,0.409449,0.228346,0.070866,0.377953,0.299213,0.031496,0.795276,0.464567,-0.031496,0.062992,0.259843,0.244094,0.251969,0.330709,0.204724,0.299213,0.204724,0.244094,0.19685,0.110236,0.220472,0.267717,0.362205,0.299213,0.149606,-0.307087,-0.425197,-0.267717,-0.251969,-0.448819,-0.393701,-0.370079,-0.330709,-0.307087,-0.425197,-0.543307,-0.724409,-0.070866,-0.023622,0.07874,0.,0.055118,-0.102362,-0.007874,-0.007874,0.007874,-0.259843,-0.244094,0.228346,0.086614,-0.023622,0.094488,0.031496,-0.094488,0.086614,0.165354,-0.07874,0.181102,0.212598,-0.110236,0.,-0.275591,0.015748,0.110236,-0.141732,0.244094,0.370079,-0.141732,-0.228346,0.047244,0.007874,-0.031496,-0.11811,0.173228,-0.322835,0.11811,-0.141732,-0.023622,0.173228,-0.165354,0.283465,-0.228346,-0.015748,-0.03937,-0.015748,0.07874,0.110236,-0.110236,-0.047244,0.251969,0.204724,0.212598,0.086614,-0.23622,0.03937,0.181102,0.220472,0.070866,0.031496,0.047244,0.385827,0.,-0.110236,0.031496,-0.007874,0.,-0.181102,-0.031496,-0.047244,-0.023622,0.015748,-0.03937,0.07874,-0.055118,0.15748,-0.102362,-0.062992,0.023622,0.031496,-0.062992,0.015748,-0.031496,-0.125984,-0.047244,0.03937,-0.055118,-0.015748,0.047244,-0.070866,-0.055118,-0.133858,0.03937,-0.047244,0.055118,-0.023622,-0.055118,-0.023622,-0.03937,-0.11811,-0.023622,-0.07874,-0.007874,-0.125984,0.015748,0.,-0.055118,0.015748,-0.007874,-0.007874,0.094488,0.062992,0.007874,0.11811,0.03937,0.031496,0.,0.031496,0.070866,0.149606,0.03937,0.086614,0.023622,0.094488,0.070866,0.062992,0.03937,0.181102,0.165354,0.047244,0.047244,0.102362,0.110236,0.031496,0.149606,0.149606,-0.015748,-0.047244,-0.03937,0.047244,-0.023622,-0.007874,-0.03937,-0.023622,0.007874,0.007874,-0.03937,-0.031496,-0.07874,0.,-0.047244,-0.149606,-0.023622,-0.023622,0.259843,0.070866,0.023622,0.047244,-0.11811,0.03937,-0.007874,-0.015748,0.,-0.062992,-0.007874,-0.03937,-0.031496,-0.125984,-0.086614,0.015748,0.007874,0.110236,0.055118,-0.086614,-0.03937,0.055118,0.03937,-0.110236,-0.102362,-0.204724,-0.07874,-0.007874,0.03937,-0.03937,0.031496,0.062992,-0.047244,0.055118,0.15748,-0.094488,-0.055118,0.110236,-0.149606,-0.007874,0.07874,-0.086614,-0.07874,-0.023622,0.023622,0.03937,0.047244,0.07874,0.062992,0.102362,0.11811,0.133858,-0.023622,-0.055118,-0.03937,0.11811,0.007874,0.015748,-0.031496,0.062992,-0.015748,-0.102362,0.015748,-0.007874,0.03937,-0.007874,-0.015748,0.086614,0.062992,-0.062992,0.015748,-0.007874,0.023622,0.07874,0.,-0.055118,-0.086614,-0.220472,-0.015748,0.023622,-0.062992,0.125984,0.015748,-0.055118,-0.03937,-0.070866,0.047244,0.007874,0.031496,0.086614,-0.070866,0.047244,0.110236,0.03937,-0.031496,-0.062992,0.023622,0.023622,0.03937,-0.070866,0.110236,-0.015748,0.03937,-0.031496,-0.047244,-0.015748,0.070866,0.031496,0.015748,0.07874,-0.031496,0.055118,0.047244,0.007874,0.03937,0.204724,-0.031496,0.110236,0.094488,-0.055118,0.086614,0.070866,-0.047244,-0.007874,-0.023622,0.047244,0.023622,0.102362,0.07874,0.03937,0.023622,0.,0.055118,0.055118,0.07874,-0.047244,-0.03937,-0.086614,-0.047244,-0.007874,-0.03937,-0.070866,0.031496,0.03937,0.133858,0.149606,0.015748,-0.047244,-0.023622,0.031496,-0.181102,-0.023622,0.023622,0.047244,0.047244,-0.086614,-0.03937,-0.11811,-0.007874,-0.007874,-0.125984,0.07874,-0.03937,-0.015748,0.094488,-0.086614,0.055118,0.047244,-0.047244,-0.07874,0.07874,0.062992,-0.03937,0.023622,-0.007874,0.070866,0.03937,-0.007874,0.023622,0.03937,-0.007874,0.03937,0.031496,-0.062992,0.149606,0.031496,0.07874,0.055118,-0.023622,0.047244,0.031496,0.062992,0.015748,0.055118,-0.062992,-0.007874,0.031496,0.007874,0.023622,0.062992,0.007874,0.047244,0.125984,0.11811,0.062992,0.07874,0.023622,-0.015748,0.03937,-0.047244,0.007874,0.086614,0.070866,0.023622,-0.007874,-0.047244,-0.015748,-0.023622,-0.007874,-0.086614,-0.007874,0.102362,-0.031496,0.07874,-0.007874,-0.023622,0.015748,0.,-0.062992,-0.015748,-0.086614,-0.062992,0.015748,0.023622,-0.07874,-0.094488,0.,-0.055118,-0.070866,0.023622,0.007874,0.031496,0.047244,0.023622,-0.03937,0.015748,0.015748,0.03937,-0.015748,-0.031496,0.007874,-0.03937,0.031496,-0.007874,-0.031496,0.07874,0.03937,0.,0.110236,-0.031496,0.070866,-0.03937,0.015748,0.07874,0.047244,0.047244,-0.007874,-0.047244,0.047244,0.031496,0.023622,0.023622,0.07874,0.094488,0.,0.047244,0.15748,0.031496,0.070866,0.125984,-0.023622,0.015748,0.03937,0.055118,0.047244,0.07874,0.047244,0.007874,-0.03937,-0.015748,-0.023622,-0.055118,-0.015748,0.03937,-0.031496,-0.03937,0.023622,-0.062992,-0.023622,0.031496,-0.023622,-0.047244,-0.015748,-0.110236,-0.015748,-0.007874,-0.110236,-0.03937,-0.007874,-0.062992,-0.023622,-0.047244,-0.212598,-0.015748,0.007874,0.062992
