repovizz,framerate=200
-0.141732,0.188976,-0.212598,0.102362,-0.070866,-0.015748,-0.11811,-0.007874,0.110236,-0.062992,0.03937,0.,0.11811,-0.11811,-0.047244,0.07874,0.023622,-0.055118,0.023622,0.023622,-0.023622,0.03937,-0.102362,0.062992,-0.031496,0.055118,0.094488,-0.220472,-0.007874,0.062992,-0.055118,-0.055118,0.086614,-0.173228,0.244094,-0.11811,-0.07874,-0.070866,0.11811,0.03937,-0.03937,0.03937,-0.307087,0.133858,-0.031496,0.,0.,-0.023622,0.,0.,0.03937,-0.03937,0.007874,0.015748,-0.015748,-0.031496,-0.007874,-0.015748,0.015748,-0.055118,0.055118,-0.023622,0.031496,-0.023622,-0.015748,0.007874,0.047244,-0.007874,-0.023622,0.023622,-0.204724,0.110236,-0.062992,0.007874,0.,0.031496,-0.007874,-0.047244,-0.023622,-0.03937,-0.023622,-0.031496,0.015748,0.023622,0.007874,0.007874,0.,-0.055118,-0.023622,0.023622,-0.047244,-0.023622,-0.007874,-0.03937,-0.031496,0.,0.023622,0.031496,-0.023622,-0.007874,-0.031496,0.,0.031496,-0.015748,-0.023622,-0.047244,0.,0.03937,-0.031496,0.03937,-0.031496,-0.007874,-0.023622,-0.062992,-0.047244,0.023622,-0.03937,0.015748,0.07874,-0.125984,0.015748,0.023622,0.03937,0.023622,-0.007874,0.031496,0.,-0.007874,-0.031496,-0.015748,0.015748,-0.015748,-0.031496,-0.031496,0.03937,0.055118,-0.007874,0.,-0.031496,-0.023622,0.,0.062992,-0.15748,0.007874,0.023622,0.007874,-0.031496,0.070866,-0.03937,-0.055118,0.015748,0.031496,-0.047244,-0.023622,-0.015748,-0.11811,0.141732,-0.07874,-0.023622,-0.015748,0.,-0.015748,-0.015748,0.,-0.023622,-0.047244,-0.007874,0.007874,-0.03937,-0.015748,0.086614,-0.062992,-0.047244,0.07874,-0.015748,-0.102362,0.007874,0.007874,0.062992,0.110236,-0.133858,-0.015748,0.023622,0.07874,-0.11811,0.015748,-0.094488,-0.11811,0.307087,-0.07874,-0.149606,0.07874,-0.015748,-0.023622,0.031496,0.,-0.070866,0.031496,0.007874,-0.015748,0.007874,0.023622,0.,-0.07874,-0.007874,0.07874,0.03937,0.047244,-0.031496,-0.047244,0.031496,0.007874,0.023622,-0.23622,0.11811,-0.102362,0.125984,-0.031496,0.047244,0.062992,-0.015748,-0.070866,0.094488,-0.086614,0.015748,-0.07874,0.03937,0.015748,-0.03937,0.228346,0.03937,-0.141732,0.165354,-0.141732,-0.047244,-0.047244,0.031496,0.047244,0.181102,-0.204724,0.015748,0.125984,-0.503937,0.354331,-0.173228,-0.149606,-0.086614,0.062992,-0.19685,0.11811,-0.125984,0.015748,0.055118,0.086614,-0.11811,-0.007874,0.11811,-0.055118,0.181102,-0.228346,0.149606,-0.03937,-0.062992,-0.070866,-0.007874,-0.007874,0.212598,0.102362,-0.102362,0.007874,-0.133858,0.086614,-0.291339,0.102362,0.023622,0.11811,-0.086614,0.015748,0.031496,-0.086614,0.070866,0.023622,0.,-0.055118,-0.094488,-0.212598,0.11811,-0.228346,0.220472,0.031496,-0.03937,0.,-0.03937,-0.03937,0.015748,-0.141732,0.07874,-0.007874,0.023622,-0.07874,0.125984,-0.188976,0.425197,-0.165354,-0.283465,0.322835,-0.433071,0.488189,0.251969,-0.377953,0.19685,-0.07874,0.102362,-0.055118,0.110236,-0.15748,0.007874,-0.070866,0.204724,-0.149606,0.094488,-0.102362,-0.440945,0.314961,-0.149606,0.244094,0.015748,0.125984,-0.80315,0.370079,-0.511811,0.275591,0.393701,-0.188976,0.07874,0.023622,0.07874,0.062992,-0.188976,-0.007874,0.110236,-0.259843,0.204724,0.181102,-0.480315,0.070866,-0.165354,0.086614,0.023622,0.007874,0.15748,-0.133858,0.11811,-0.094488,0.086614,0.307087,-0.165354,-0.102362,-0.212598,0.259843,-0.267717,0.354331,-0.047244,-0.307087,0.472441,-0.070866,-0.811024,0.377953,-0.070866,1.,-0.566929,-0.23622,-0.212598,-0.385827,0.755906,-0.133858,-0.291339,-0.220472,0.165354,0.007874,0.062992,0.165354,0.055118,0.015748,-0.007874,0.275591,-0.267717,0.125984,0.031496,-0.307087,0.496063,-0.11811,-0.566929,-0.086614,0.409449,0.110236,0.393701,-0.677165,0.480315,-0.574803,0.338583,-0.055118,0.181102,-0.062992,-0.700787,0.992126,-0.826772,0.314961,0.086614,-0.346457,0.165354,0.283465,-0.346457,0.228346,0.181102,-0.204724,0.173228,-0.133858,0.094488,0.23622,0.346457,-0.80315,0.15748,-0.283465,0.740157,-0.149606,-0.433071,-0.070866,0.503937,0.173228,0.086614,-0.259843,-0.338583,0.330709,-0.346457,-0.677165,0.283465,-0.181102,0.055118,-0.409449,0.362205,-1.007874,0.062992,-0.795276,0.685039,0.070866,0.220472,0.913386,-0.929134,1.,-0.472441,0.661417,-1.007874,0.913386,-1.007874,0.952756,0.299213,-0.622047,0.669291,-0.519685,0.062992,0.700787,-0.732283,-0.141732,-0.708661,0.614173,0.527559,-0.708661,0.204724,-0.204724,-0.322835,0.307087,-0.559055,-0.015748,0.519685,-0.519685,0.307087,-0.448819,-0.141732,0.771654,-0.259843,-0.228346,0.653543,-0.188976,0.464567,-0.385827,0.,0.244094,0.346457,-0.291339,0.228346,0.322835,-0.275591,0.244094,0.559055,-0.527559,-0.03937,-0.724409,-0.464567,-0.330709,0.307087,-0.141732,0.031496,0.,-0.110236,-0.055118,0.03937,0.401575,-0.417323,0.283465,-0.11811,-0.165354,0.275591,-0.133858,0.251969,-0.551181,0.165354,-0.173228,0.433071,-0.23622,-0.062992,0.598425,-0.984252,0.976378,-0.559055,0.23622,-0.220472,-0.070866,0.251969,0.15748,0.212598,-0.700787,0.503937,-0.212598,0.062992,0.031496,0.267717,0.590551,-0.677165,0.188976,-0.149606,0.03937,0.771654,-0.23622,0.03937,-0.787402,0.503937,-0.480315,0.023622,-0.401575,-0.606299,0.472441,0.527559,-0.330709,0.354331,-0.15748,-0.220472,-0.15748,0.519685,-0.165354,0.165354,0.094488,-0.173228,0.141732,0.015748,-0.165354,-0.84252,0.464567,0.322835,-0.141732,-0.275591,-0.299213,0.488189,0.015748,-0.031496,-0.165354,-0.637795,0.984252,-0.007874,0.259843,0.15748,0.299213,0.543307,0.370079,-0.80315,0.031496,0.440945,0.031496,-0.669291,0.228346,-0.377953,0.267717,0.322835,0.015748,-0.251969,0.220472,0.204724,-0.590551,0.574803,-0.440945,-0.086614,0.11811,-0.393701,0.724409,-0.448819,0.07874,-0.19685,0.299213,0.094488,-0.165354,-0.047244,-0.102362,-0.07874,-0.110236,0.023622,-0.125984,0.23622,-0.338583,0.590551,-0.84252,0.551181,-0.094488,0.165354,0.259843,0.125984,-0.330709,0.440945,0.,-0.787402,0.637795,0.03937,-0.023622,-0.023622,0.622047,-0.858268,0.291339,-0.15748,0.007874,0.03937,-0.755906,-0.015748,0.401575,-0.354331,0.031496,0.110236,-0.771654,0.19685,-0.204724,0.125984,0.543307,0.125984,0.086614,-0.125984,-0.007874,-0.622047,0.889764,-0.03937,0.417323,0.03937,-0.440945,0.19685,-0.07874,0.370079,-0.094488,-0.204724,-0.606299,0.055118,-0.102362,0.76378,-0.677165,-0.023622,0.456693,-0.370079,-0.149606,0.488189,-0.149606,0.07874,-0.125984,0.19685,-0.212598,0.188976,-0.267717,0.03937,-0.543307,0.464567,0.23622,-0.708661,0.086614,-0.377953,0.692913,0.047244,-0.409449,0.062992,0.370079,-0.07874,0.055118,0.212598,-0.472441,0.850394,0.480315,0.125984,-0.275591,-0.19685,-0.125984,-0.291339,0.141732,-0.574803,-0.007874,-0.055118,0.551181,-0.472441,0.220472,0.503937,-0.732283,0.661417,0.047244,0.188976,-0.149606,-0.173228,0.267717,-0.629921,0.181102,-0.023622,-0.015748,0.070866,-0.291339,0.070866,0.015748,-0.03937,0.125984,-0.086614,0.291339,-0.11811,-0.125984,0.11811,0.007874,-0.212598,0.314961,-0.165354,0.047244,0.188976,-0.023622,0.023622,-0.125984,-0.338583,0.228346,-0.023622,-0.07874,0.244094,-0.102362,-0.11811,0.125984,-0.188976,0.031496,-0.007874,-0.055118,-0.165354,0.188976,-0.110236,-0.07874,0.055118,-0.094488,0.125984,0.267717,0.149606,-0.228346,0.188976,-0.637795,0.181102,0.062992,-0.251969,-0.023622,-0.07874,-0.062992,0.330709,0.314961,-0.330709,-0.031496,-0.102362,-0.11811,0.346457,-0.149606,-0.251969,0.307087,-0.181102,0.291339,-0.15748,0.11811,-0.062992,-0.023622,0.015748,0.299213,-0.330709,0.322835,-0.212598,-0.338583,0.212598,0.023622,-0.307087,0.047244,0.275591,-0.188976,0.677165,-0.472441,0.125984,0.,-0.015748,-0.015748,-0.015748,0.007874,-0.007874,0.,-0.023622,0.055118,-0.007874,-0.149606,0.086614,0.086614,-0.173228,0.03937,0.031496,0.007874,-0.023622,0.094488,0.015748,-0.267717,0.07874,0.023622,-0.173228,0.062992,-0.086614,-0.133858,0.338583,-0.283465,-0.125984,0.496063,-0.259843,0.03937,-0.007874,-0.007874,-0.086614,0.110236,-0.070866,-0.062992,0.102362,-0.015748,0.188976,-0.251969,0.055118,0.07874,0.062992,-0.149606,-0.031496,0.03937,-0.015748,-0.03937,-0.165354,-0.031496,-0.102362,0.023622,0.125984,-0.023622,0.031496,-0.173228,0.007874,-0.023622,-0.094488,0.070866,-0.07874,0.07874,-0.047244,0.015748,0.330709,-0.181102,0.023622,-0.385827,-0.456693,0.496063,0.070866,0.448819,-0.094488,-0.23622,0.165354,-0.047244,-0.062992,-0.015748,-0.031496,0.,0.023622,0.031496,-0.15748,0.110236,0.15748,-0.275591,-0.07874,0.11811,0.133858,-0.307087,0.188976,-0.133858,-0.07874,-0.03937,-0.07874,0.181102,-0.15748,0.062992,0.11811,-0.204724,0.070866,-0.031496,-0.015748,-0.181102,0.440945,-0.267717,-0.055118,-0.023622,-0.181102,0.377953,0.07874,-0.19685,-0.244094,0.133858,-0.338583,0.456693,-0.102362,0.23622,0.377953,-0.425197,-0.007874,-0.377953,0.149606,0.023622,-0.125984,0.322835,-0.330709,-0.023622,0.070866,-0.291339,-0.023622,0.086614,0.251969,0.086614,0.338583,-0.23622,-0.07874,-0.149606,-0.031496,0.19685,-0.007874,-0.07874,-0.220472,-0.251969,0.070866,-0.149606,0.448819,-0.125984,-0.03937,0.267717,-0.80315,1.,-0.661417,0.07874,0.267717,-0.244094,0.716535,-0.551181,0.346457,-0.322835,-0.03937,0.440945,-0.283465,-0.141732,0.19685,-0.047244,0.070866,0.385827,-0.125984,-0.244094,-0.070866,-0.149606,0.094488,0.551181,-0.07874,0.015748,0.,-0.913386,0.173228,-0.007874,-0.047244,0.401575,-0.330709,0.440945,-0.283465,-0.307087,0.07874,-0.212598,-0.291339,0.,-0.212598,0.299213,-0.11811,0.220472,0.125984,-0.173228,0.393701,-0.188976,0.582677,-0.362205,0.141732,0.503937,0.023622,-0.370079,0.322835,0.354331,-0.472441,-0.535433,0.346457,-0.259843,-0.244094,0.80315,-0.173228,-0.19685,0.19685,0.110236,0.110236,-0.133858,-0.11811,-0.015748,0.559055,-0.472441,-0.07874,-0.11811,-0.370079,0.275591,0.055118,-0.787402,0.574803,-0.362205,0.11811,-0.244094,-0.551181,0.622047,-0.606299,-0.393701,0.031496,0.354331,0.905512,0.307087,0.440945,0.535433,0.535433,-0.385827,0.283465,-0.850394,1.,-0.409449,-0.622047,0.496063,-0.535433,0.88189,-0.905512,-0.456693,0.086614,0.488189,-0.047244,1.,-0.92126,0.897638,-0.275591,-0.685039,-0.055118,0.913386,0.133858,-0.251969,0.692913,-0.677165,0.346457,0.11811,-0.055118,0.125984,-0.826772,-0.496063,0.086614,-0.433071,-0.244094,0.007874,-0.409449,0.480315,0.165354,-0.755906,0.377953,-0.291339,0.299213,0.433071,-0.204724,0.228346,0.110236,-0.377953,0.03937,0.614173,-0.275591,0.307087,-0.527559,-0.559055,0.685039,-0.086614,-0.188976,0.645669,-0.480315,0.23622,-0.291339,0.212598,0.244094,-0.299213,0.094488,-0.070866,-0.07874,0.220472,-0.173228,-0.677165,0.385827,-0.03937,0.267717,0.15748,-0.598425,0.220472,0.125984,0.086614,0.062992,-0.023622,0.307087,-0.677165,-0.204724,0.448819,0.251969,0.322835,-0.291339,0.267717,-0.133858,-0.440945,0.291339,0.165354,-0.251969,-0.354331,0.354331,-0.543307,-0.07874,0.440945,-0.527559,0.511811,0.425197,-0.291339,0.07874,0.551181,-0.566929,0.181102,0.385827,-0.259843,0.11811,0.110236,-0.685039,-0.181102,-0.456693,0.519685,0.220472,-0.094488,0.062992,-0.590551,0.622047,0.015748,-0.070866,0.795276,-0.456693,-0.480315,-0.07874,0.629921,-0.590551,0.15748,0.307087,-0.653543,0.637795,0.23622,0.740157,-0.346457,-0.417323,0.110236,-0.03937,0.,0.80315,0.346457,0.629921,-1.007874,-0.251969,-0.11811,-0.070866,0.188976,-0.937008,0.984252,-0.11811,-0.19685,-0.094488,-0.070866,-0.094488,0.165354,-0.220472,0.015748,-0.228346,0.834646,-0.425197,0.023622,-0.346457,0.102362,0.606299,-0.732283,-0.11811,0.259843,-0.275591,-0.110236,0.212598,-0.614173,0.543307,-0.354331,-0.173228,-0.448819,0.740157,-0.07874,-0.259843,-0.251969,0.023622,0.149606,0.07874,0.267717,0.433071,-0.937008,0.338583,0.330709,-0.834646,-0.125984,0.425197,-0.133858,0.370079,-0.023622,0.212598,0.488189,-0.503937,0.062992,-0.07874,0.401575,-0.188976,-0.267717,-0.299213,0.771654,-0.149606,-0.015748,0.181102,-0.417323,0.173228,0.299213,-0.480315,-0.669291,0.866142,-0.133858,0.598425,0.291339,-0.094488,0.291339,-0.385827,0.496063,-0.330709,0.086614,-0.417323,-0.401575,0.23622,-0.023622,-0.251969,-0.031496,-0.133858,0.346457,0.464567,-0.590551,0.149606,0.165354,0.401575,0.307087,-0.472441,0.464567,0.204724,0.740157,-0.771654,0.669291,-0.086614,-0.299213,0.551181,-0.370079,-0.330709,-1.007874,1.,-0.015748,-0.228346,0.291339,-0.614173,-0.141732,0.228346,-0.102362,-0.307087,0.275591,0.07874,0.409449,-0.23622,-0.716535,0.055118,-0.188976,0.314961,0.291339,-0.165354,-0.354331,0.125984,0.03937,-0.094488,0.141732,-0.007874,-0.181102,0.031496,-0.110236,0.11811,-0.23622,0.125984,0.07874,-0.220472,-0.228346,0.338583,-0.204724,0.220472,-0.19685,-0.472441,0.228346,0.307087,-0.133858,-0.181102,-0.094488,0.007874,0.448819,0.125984,0.165354,-0.307087,0.393701,-0.299213,0.015748,-0.244094,0.055118,-0.007874,0.173228,-0.015748,-0.11811,0.314961,-0.322835,-0.055118,0.23622,-0.188976,0.110236,-0.401575,-0.149606,0.133858,-0.15748,0.220472,0.259843,0.07874,-0.354331,0.377953,-0.330709,0.023622,0.070866,0.07874,-0.062992,0.023622,0.181102,-0.03937,-0.141732,0.133858,-0.125984,0.055118,-0.031496,-0.047244,0.070866,-0.094488,-0.055118,0.07874,0.007874,-0.007874,-0.023622,-0.125984,0.094488,0.015748,0.212598,0.007874,-0.283465,0.094488,0.03937,0.015748,-0.007874,0.023622,-0.062992,0.023622,0.,-0.03937,0.023622,-0.11811,-0.03937,-0.007874,-0.070866,-0.133858,0.251969,-0.007874,-0.007874,0.188976,-0.19685,0.007874,-0.007874,-0.125984,0.23622,-0.086614,0.015748,0.,-0.125984,-0.015748,0.055118,-0.055118,-0.031496,-0.023622,0.03937,-0.047244,-0.007874,-0.047244,0.031496,0.031496,0.023622,-0.03937,0.,-0.015748,0.023622,-0.110236,-0.015748,0.023622,0.,-0.173228,-0.015748,-0.23622,-0.015748,0.330709,-0.275591,0.19685,-0.125984,0.023622,0.19685,0.03937,-0.055118,-0.055118,0.11811,0.062992,-0.102362,0.15748,-0.188976,-0.031496,0.055118,-0.015748,0.023622,0.007874,0.03937,0.086614,-0.181102,0.023622,-0.133858,0.204724,0.055118,0.086614,-0.212598,-0.102362,0.110236,0.007874,0.11811,-0.015748,-0.086614,0.141732,-0.102362,-0.188976,0.11811,0.023622,-0.07874,-0.007874,-0.228346,0.007874,0.417323,-0.480315,0.511811,-0.653543,-0.070866,0.181102,-0.204724,0.015748,0.141732,-0.322835,0.212598,0.055118,0.102362,0.007874,-0.015748,0.102362,-0.047244,-0.251969,-0.19685,0.110236,-0.149606,0.503937,-0.440945,-0.102362,-0.031496,-0.015748,0.015748,-0.094488,-0.007874,-0.055118,0.519685,-0.354331,-0.031496,0.228346,-0.070866,0.,0.,-0.204724,0.070866,0.031496,-0.338583,-0.015748,0.141732,0.11811,0.023622,0.094488,0.149606,-0.062992,0.086614,0.511811,0.062992,0.031496,0.070866,0.409449,-0.283465,-0.417323,-0.031496,-0.244094,0.149606,-0.110236,-0.047244,-0.314961,0.251969,-0.299213,0.755906,-0.811024,-0.393701,0.732283,-0.377953,0.086614,0.448819,0.055118,-0.11811,0.094488,0.244094,-0.07874,-0.11811,-0.070866,-0.511811,0.409449,0.11811,0.031496,-0.716535,0.188976,-0.055118,0.464567,0.07874,-0.338583,0.031496,-0.307087,0.401575,-0.314961,-0.464567,0.433071,-0.574803,0.165354,0.047244,0.425197,-0.472441,-0.03937,0.141732,-0.755906,0.519685,0.,0.244094,0.062992,-0.023622,-0.141732,0.740157,-0.314961,0.425197,-0.496063,-0.19685,0.15748,-0.614173,0.433071,0.480315,-0.149606,-0.259843,0.212598,-0.897638,0.787402,-0.291339,-0.503937,0.732283,-0.440945,0.023622,0.464567,-0.433071,0.204724,-0.031496,0.275591,-0.496063,0.291339,-0.07874,-0.031496,-0.251969,0.07874,0.700787,-0.582677,0.015748,0.409449,-0.275591,-0.818898,-0.251969,0.244094,-0.472441,0.220472,0.047244,-0.377953,0.88189,0.472441,-0.133858,0.551181,-0.251969,0.984252,0.283465,-0.700787,-0.385827,-0.283465,0.574803,-0.275591,0.629921,-0.92126,0.173228,-0.677165,0.795276,0.590551,-0.787402,0.322835,-0.811024,0.141732,-0.015748,0.551181,-0.905512,0.858268,-0.228346,-0.448819,0.779528,-0.267717,0.519685,-0.204724,-0.023622,-0.212598,0.275591,-0.283465,0.519685,-0.590551,-0.291339,0.102362,0.204724,0.322835,-0.314961,0.110236,0.03937,-0.133858,-0.173228,0.133858,-0.062992,0.165354,-0.047244,0.141732,0.173228,-0.393701,0.133858,0.03937,-0.149606,0.653543,0.19685,-0.275591,-0.818898,0.062992,0.354331,-0.062992,0.007874,-0.055118,-0.102362,-0.062992,0.023622,-0.15748,0.330709,-0.062992,-0.204724,0.165354,-0.275591,0.291339,0.15748,0.03937,-0.070866,0.133858,0.07874,-0.212598,0.330709,-0.440945,0.19685,0.086614,-0.173228,0.393701,-0.314961,0.055118,0.133858,-0.15748,0.149606,-0.055118,0.007874,0.370079,-0.23622,-0.244094,0.03937,-0.582677,-0.291339,0.708661,-0.212598,-0.267717,-0.433071,0.519685,0.370079,-0.070866,0.094488,-0.15748,-0.519685,-0.259843,0.031496,0.19685,-0.440945,0.897638,-0.448819,0.826772,0.622047,-1.007874,0.472441,-0.283465,-0.897638,0.96063,-0.472441,-0.228346,0.850394,-0.716535,0.464567,-0.740157,-0.165354,-0.425197,0.692913,-0.488189,0.251969,0.03937,-0.023622,-0.259843,0.070866,0.543307,0.094488,0.173228,-0.086614,0.07874,0.133858,-0.07874,-0.559055,0.488189,0.062992,0.015748,-0.708661,0.433071,-0.125984,0.598425,-0.322835,-0.141732,0.393701,-0.850394,0.692913,0.015748,-0.181102,0.724409,-0.133858,-0.275591,-0.362205,-0.23622,0.503937,0.181102,-0.472441,0.259843,0.188976,-0.598425,0.448819,-0.527559,0.464567,-0.23622,0.11811,0.188976,-0.062992,-0.149606,-0.212598,-0.141732,0.314961,-0.322835,0.267717,-0.417323,0.141732,-0.133858,0.299213,-0.480315,0.566929,0.015748,-0.125984,-0.07874,-0.244094,-0.133858,-0.07874,0.377953,-0.559055,0.622047,-0.165354,0.259843,-0.299213,0.102362,0.23622,0.007874,0.448819,0.370079,-0.913386,0.826772,-0.267717,-0.181102,0.551181,-0.377953,-0.496063,0.015748,0.401575,0.015748,-0.070866,-0.19685,-0.141732,-0.362205,-1.007874,0.629921,-0.385827,0.543307,-0.275591,0.173228,0.692913,-0.748031,0.480315,-0.133858,-0.330709,0.212598,0.629921,-0.228346,0.440945,-0.889764,1.,-0.07874,-0.110236,0.519685,-0.826772,0.669291,0.094488,0.425197,-0.377953,-0.354331,-0.267717,-0.007874,0.606299,-0.251969,-0.094488,0.094488,0.149606,-0.141732,-0.07874,0.070866,-0.228346,0.330709,-0.11811,-0.023622,-0.070866,-0.267717,0.141732,0.102362,-0.047244,0.11811,-0.07874,0.031496,0.03937,-0.031496,-0.259843,0.11811,-0.110236,-0.007874,0.629921,-0.346457,0.133858,-0.15748,0.11811,-0.102362,0.031496,-0.125984,0.204724,-0.173228,0.125984,-0.102362,0.102362,0.047244,0.086614,-0.314961,-0.031496,-0.15748,-0.181102,0.299213,-0.307087,0.102362,-0.165354,0.417323,-0.259843,0.173228,0.031496,-0.141732,-0.173228,0.181102,0.015748,-0.062992,-0.165354,0.031496,-0.03937,0.023622,0.15748,-0.141732,0.102362,0.062992,0.047244,-0.228346,0.181102,-0.03937,-0.133858,0.11811,-0.370079,0.110236,0.047244,-0.07874,0.03937,0.070866,-0.15748,0.047244,0.055118,0.03937,-0.015748,-0.062992,-0.11811,-0.086614,0.055118,-0.047244,0.031496,0.291339,-0.110236,0.11811,-0.047244,0.110236,-0.15748,-0.086614,0.023622,0.086614,-0.228346,0.188976,-0.062992,0.062992,-0.062992,-0.165354,-0.11811,0.141732,-0.047244,-0.03937,0.070866,-0.629921,0.88189,-0.188976,0.165354,-0.188976,0.11811,-0.03937,-0.228346,0.007874,0.023622,0.433071,0.070866,-0.472441,-0.393701,0.606299,0.188976,-0.330709,0.086614,-0.755906,0.685039,0.094488,-0.086614,0.15748,-0.716535,0.732283,0.149606,0.023622,-0.220472,-0.094488,0.125984,-0.433071,-0.220472,-0.062992,-0.007874,-0.110236,0.519685,-0.346457,0.125984,-0.228346,0.07874,0.188976,-0.188976,-0.188976,-0.110236,0.322835,0.133858,0.220472,-0.047244,0.102362,-0.173228,-0.11811,-0.110236,-0.110236,-0.047244,0.535433,-0.062992,-0.322835,0.385827,0.102362,-0.519685,0.23622,-0.133858,0.362205,0.204724,-0.023622,-0.228346,-0.19685,-0.370079,0.,0.440945,-0.141732,0.015748,-0.007874,-0.181102,0.188976,0.165354,0.102362,0.007874,-0.070866,-0.322835,0.23622,-0.299213,0.244094,0.385827,-0.291339,-0.173228,0.03937,0.314961,-0.251969,0.11811,-0.716535,0.299213,0.03937,0.133858,-0.299213,0.307087,0.11811,-0.503937,0.244094,0.023622,-0.165354,-0.047244,-0.062992,-0.173228,0.110236,-0.062992,0.094488,-0.023622,-0.086614,0.11811,-0.181102,-0.055118,0.409449,-0.346457,0.582677,-0.464567,0.015748,0.023622,-0.165354,0.488189,-0.519685,0.251969,-0.07874,-0.377953,0.527559,-0.472441,0.401575,0.062992,0.047244,-0.03937,-0.102362,0.220472,-0.094488,-0.23622,-0.330709,-0.267717,0.874016,0.503937,-0.543307,0.409449,-0.84252,0.606299,-0.188976,-0.535433,0.251969,-0.031496,0.023622,0.330709,-0.401575,-0.535433,0.094488,-0.094488,0.,0.472441,0.244094,-0.133858,-0.149606,0.244094,-0.779528,-0.661417,1.,-0.283465,0.322835,-0.031496,-0.661417,0.645669,0.15748,-0.110236,0.007874,-0.259843,-0.661417,0.692913,-0.354331,-0.11811,0.275591,-0.716535,0.212598,0.015748,0.275591,0.15748,0.212598,-0.724409,0.102362,0.007874,0.11811,0.204724,-0.259843,0.661417,-0.244094,-0.346457,-0.125984,-0.385827,0.425197,-0.314961,0.503937,-0.15748,-0.307087,0.11811,-0.433071,-0.023622,-0.055118,-0.141732,0.984252,-0.125984,-0.692913,0.19685,0.03937,-0.464567,0.267717,0.574803,-0.251969,-0.015748,0.212598,-0.244094,0.070866,-0.055118,-0.11811,-0.110236,0.606299,0.401575,-0.07874,-0.433071,0.409449,-0.456693,0.283465,-0.244094,-0.055118,0.511811,-0.322835,-0.456693,-0.110236,0.913386,-0.433071,-0.464567,-0.086614,-0.771654,0.291339,0.173228,0.07874,-0.818898,0.937008,0.480315,-0.338583,0.377953,-0.19685,0.732283,-0.448819,0.519685,-0.669291,0.338583,0.307087,0.732283,-0.409449,0.858268,-0.440945,-0.094488,-0.173228,-0.417323,-0.102362,-0.425197,-0.031496,-0.181102,-0.094488,-0.15748,0.598425,-0.165354,0.141732,-0.228346,-0.299213,0.125984,0.259843,-0.141732,-0.125984,0.307087,0.094488,0.,0.322835,-0.299213,-0.07874,-0.094488,-0.102362,0.228346,0.102362,-0.07874,-0.086614,-0.496063,0.740157,0.07874,0.377953,-0.346457,-0.559055,-0.031496,-0.614173,0.629921,-0.692913,0.574803,0.401575,-0.393701,0.251969,-0.645669,-0.03937,0.929134,-0.015748,0.047244,-0.031496,-0.03937,-0.708661,0.732283,-0.11811,-0.007874,0.456693,-0.322835,0.086614,-0.409449,-0.03937,-0.070866,0.259843,-0.228346,-0.055118,0.212598,0.007874,-0.322835,0.448819,-0.023622,-0.283465,-0.275591,0.165354,-0.102362,0.283465,0.480315,-0.055118,-0.110236,-0.055118,0.110236,-0.291339,0.102362,-0.181102,0.362205,0.047244,-0.165354,0.07874,-0.07874,0.133858,0.,0.496063,-0.244094,-0.275591,-0.094488,-0.102362,-0.023622,0.165354,0.007874,0.03937,0.110236,-0.370079,0.314961,0.220472,-0.417323,0.133858,-0.133858,-0.181102,-0.15748,0.748031,0.141732,-0.787402,-0.173228,0.370079,0.551181,0.322835,-0.661417,0.173228,-0.811024,-0.354331,0.732283,-0.614173,0.125984,0.047244,0.393701,-0.181102,0.590551,-0.503937,0.354331,-0.661417,0.149606,-0.102362,0.188976,-0.204724,0.212598,-0.259843,0.149606,0.055118,-0.370079,0.244094,-0.251969,0.330709,-0.165354,1.,-0.480315,0.149606,-0.834646,-0.228346,0.102362,0.598425,0.07874,0.393701,-0.811024,-0.031496,0.291339,0.094488,0.228346,-0.15748,-0.354331,-0.047244,-0.03937,-0.669291,0.598425,0.267717,-0.023622,-0.141732,-0.346457,0.259843,0.19685,-0.370079,0.527559,-0.212598,0.259843,-0.062992,-0.023622,-0.244094,0.204724,0.338583,-0.440945,-0.102362,-0.433071,-0.031496,0.149606,-0.102362,-0.11811,0.307087,-0.448819,0.110236,0.338583,-0.149606,0.110236,0.338583,-0.047244,0.07874,0.291339,0.141732,0.141732,-0.669291,0.015748,-0.456693,-0.07874,0.19685,-0.385827,-0.448819,0.267717,0.354331,-0.188976,-0.212598,0.259843,-0.212598,0.015748,-0.055118,-0.84252,0.653543,0.11811,-0.590551,0.543307,0.102362,0.456693,0.03937,0.212598,-0.480315,0.307087,0.,-0.937008,0.811024,0.11811,0.464567,0.464567,-0.417323,-0.047244,0.070866,0.015748,-0.559055,0.661417,0.031496,-0.283465,0.133858,-0.488189,-0.047244,0.566929,0.102362,0.,-0.031496,-0.472441,0.133858,-0.307087,-0.314961,0.874016,-0.472441,0.251969,-0.314961,0.086614,0.03937,-0.141732,0.23622,-0.07874,-0.251969,0.299213,0.062992,-0.031496,-0.023622,0.15748,-0.165354,-0.023622,-0.023622,-0.03937,0.433071,-0.653543,0.346457,-0.031496,-0.212598,0.19685,0.,0.03937,-0.133858,0.023622,-0.15748,0.086614,0.165354,-0.165354,0.275591,-0.07874,0.047244,0.070866,-0.086614,-0.11811,-0.149606,0.015748,-0.133858,-0.212598,0.149606,-0.03937,0.23622,-0.212598,-0.070866,0.07874,-0.062992,-0.015748,-0.055118,0.03937,0.031496,-0.125984,0.173228,0.007874,-0.086614,-0.244094,0.055118,0.031496,0.023622,0.149606,-0.19685,-0.094488,0.007874,-0.031496,0.291339,-0.23622,-0.055118,0.259843,-0.015748,-0.086614,-0.007874,0.055118,-0.015748,-0.070866,0.015748,0.,0.,-0.047244,-0.007874,-0.007874,0.133858,-0.007874,-0.149606,-0.007874,-0.149606,0.251969,0.086614,-0.03937,0.023622,0.007874,-0.070866,-0.015748,-0.03937,0.023622,0.086614,0.,-0.102362,0.181102,-0.133858,0.047244,-0.094488,0.047244,0.03937,-0.055118,0.031496,-0.259843,0.188976,-0.062992,-0.110236,0.031496,-0.015748,-0.07874,0.149606,-0.070866,0.055118,0.031496,-0.070866,0.031496,-0.055118,0.062992,-0.03937,-0.031496,-0.007874,-0.023622,0.03937,0.070866,-0.047244,0.007874,-0.141732,-0.031496,0.07874,-0.007874,0.141732,-0.015748,0.070866,-0.023622,0.,-0.015748,-0.055118,-0.228346,0.220472,-0.086614,0.11811,-0.094488,0.015748,-0.03937,0.062992,-0.11811,-0.086614,-0.007874,-0.094488,0.425197,-0.251969,0.007874,0.,-0.015748,-0.007874,-0.03937,0.031496,0.055118,-0.07874,0.047244,0.,0.023622,0.070866,0.015748,-0.015748,-0.149606,0.023622,-0.03937,0.,-0.031496,-0.007874,0.047244,-0.110236,0.031496,0.07874,-0.015748,-0.007874,-0.047244,-0.015748,0.07874,-0.055118,0.023622,0.007874,0.007874,-0.015748,-0.031496,-0.023622,0.055118,0.204724,-0.07874,-0.047244,-0.385827,-0.181102,0.259843,0.,0.070866,-0.15748,-0.094488,-0.110236,0.204724,-0.031496,-0.023622,-0.007874,0.015748,-0.031496,0.03937,-0.055118,0.031496,-0.086614,0.047244,-0.015748,-0.047244,0.031496,0.094488,-0.110236,0.086614,-0.094488,0.173228,-0.125984,0.015748,-0.19685,-0.062992,0.133858,-0.338583,0.401575,-0.393701,0.149606,0.023622,0.267717,-0.11811,0.047244,0.047244,-0.165354,0.015748,0.055118,0.031496,0.228346,-0.110236,-0.086614,-0.03937,0.023622,0.015748,-0.188976,-0.133858,0.173228,-0.362205,-0.07874,0.125984,-0.07874,0.755906,0.015748,0.228346,0.023622,-0.055118,-0.259843,-0.11811,-0.330709,-0.220472,-0.086614,-0.173228,0.03937,0.,0.173228,-0.299213,0.275591,0.047244,0.,-0.212598,0.23622,-0.062992,-0.094488,0.125984,0.055118,-0.141732,0.204724,0.110236,0.023622,0.102362,0.062992,-0.055118,-0.283465,0.291339,-0.007874,0.047244,-0.102362,-0.385827,0.086614,0.181102,-0.23622,-0.023622,0.047244,-0.023622,0.244094,-0.23622,0.472441,-0.417323,0.188976,-0.047244,-0.440945,0.267717,-0.456693,0.220472,0.015748,-0.275591,0.149606,0.007874,0.094488,0.464567,-0.338583,-0.110236,-0.19685,-0.031496,0.251969,0.149606,-0.125984,-0.464567,0.267717,-0.094488,0.133858,0.181102,-0.314961,0.07874,-0.015748,-0.330709,-0.062992,0.03937,-0.007874,0.393701,-0.133858,0.11811,-0.125984,0.19685,-0.244094,0.110236,-0.070866,-0.125984,-0.023622,0.141732,-0.062992,-0.496063,0.244094,0.,-0.125984,0.15748,0.110236,-0.102362,0.19685,-0.322835,0.062992,0.031496,0.15748,-0.015748,-0.251969,-0.181102,-0.220472,0.314961,0.15748,0.,0.133858,-0.125984,0.055118,0.110236,0.141732,-0.165354,-0.165354,0.251969,-0.047244,0.244094,-0.370079,0.110236,0.086614,0.204724,0.031496,-0.19685,-0.251969,0.188976,-0.070866,0.141732,-0.173228,0.086614,0.015748,0.377953,-0.023622,0.062992,0.,-0.551181,0.275591,-0.125984,0.464567,-0.370079,-0.023622,-0.173228,0.102362,0.055118,0.110236,-0.07874,0.047244,0.,-0.055118,-0.15748,-0.007874,0.03937,0.15748,0.,-0.338583,-0.291339,-0.133858,0.456693,-0.086614,0.007874,-0.15748,0.125984,0.007874,-0.204724,0.110236,-0.07874,0.015748,-0.086614,-0.055118,-0.055118,0.031496,-0.188976,-0.125984,0.23622,-0.11811,0.03937,-0.173228,-0.149606,0.149606,0.267717,0.023622,-0.055118,0.,-0.047244,0.023622,-0.086614,0.03937,-0.023622,0.023622,-0.086614,-0.055118,-0.11811,0.267717,-0.188976,0.023622,0.125984,0.212598,-0.165354,0.11811,-0.062992,0.07874,-0.212598,-0.070866,0.007874,0.141732,0.007874,0.062992,-0.047244,-0.401575,0.055118,-0.141732,0.110236,0.141732,-0.141732,0.070866,0.062992,-0.110236,-0.015748,0.055118,0.,-0.031496,-0.07874,-0.047244,0.086614,-0.023622,-0.03937,-0.055118,0.,-0.007874,0.055118,-0.023622,-0.094488,0.,0.086614,-0.031496,-0.070866,0.03937,0.125984,-0.031496,0.,-0.03937,-0.149606,0.102362,-0.149606,0.322835,-0.141732,-0.110236,0.015748,-0.149606,0.125984,0.03937,-0.007874,-0.047244,-0.062992,-0.086614,0.015748,0.023622,-0.023622,0.07874,0.015748,-0.15748,0.055118,0.007874,0.007874,0.086614,0.015748,-0.07874,-0.15748,0.055118,-0.007874,-0.03937,0.141732,-0.165354,0.055118,-0.086614,0.055118,-0.031496,0.133858,-0.11811,0.03937,-0.149606,0.007874,0.15748,0.031496,0.07874,-0.15748,0.023622,0.07874,0.070866,-0.07874,0.047244,-0.062992,-0.102362,0.15748,0.007874,-0.07874,-0.110236,0.015748,-0.110236,0.149606,-0.094488,-0.031496,-0.03937,-0.188976,0.15748,-0.031496,0.031496,-0.023622,0.015748,0.,0.047244,-0.102362,0.055118,-0.165354,-0.015748,0.031496,-0.055118,0.03937,-0.023622,-0.023622,0.023622,-0.070866,0.007874,0.055118,0.149606,-0.031496,-0.047244,0.03937,0.070866,-0.149606,0.086614,-0.149606,-0.267717,0.291339,0.055118,-0.07874,0.062992,0.,0.03937,-0.055118,-0.173228,0.055118,0.070866,0.031496,0.,-0.03937,-0.031496,-0.133858,0.244094,-0.102362,0.031496,0.031496,-0.031496,-0.07874,0.023622,-0.007874,0.023622,0.,-0.322835,0.11811,0.181102,-0.110236,0.031496,-0.086614,-0.133858,-0.094488,0.102362,-0.015748,0.007874,0.149606,0.,-0.110236,-0.03937,-0.047244,0.055118,0.047244,-0.007874,-0.015748,-0.007874,-0.015748,0.102362,0.102362,-0.062992,-0.055118,-0.204724,0.133858,-0.023622,0.023622,0.07874,-0.070866,0.102362,-0.102362,-0.031496,-0.023622,-0.133858,0.409449,-0.094488,-0.007874,-0.181102,-0.070866,0.133858,-0.070866,0.047244,-0.015748,0.11811,-0.03937,-0.047244,0.055118,0.055118,-0.094488,0.094488,-0.07874,-0.086614,0.03937,-0.062992,0.110236,0.125984,0.,-0.15748,-0.055118,-0.251969,0.141732,-0.062992,0.070866,-0.102362,0.220472,-0.149606,-0.11811,0.11811,-0.031496,-0.047244,0.03937,-0.062992,0.055118,0.181102,-0.188976,-0.055118,0.023622,0.023622,-0.023622,0.023622,-0.165354,-0.031496,0.133858,-0.19685,0.133858,-0.007874,0.055118,-0.007874,-0.086614,-0.007874,-0.03937,0.173228,-0.062992,-0.015748,-0.055118,-0.102362,0.03937,-0.023622,-0.007874,0.062992,-0.007874,-0.007874,0.11811,-0.07874,0.031496,-0.023622,-0.031496,-0.023622,0.070866,0.015748,0.,-0.141732,-0.15748,0.11811,0.070866,0.133858,-0.346457,0.251969,-0.228346,0.015748,0.133858,-0.015748,-0.031496,-0.007874,0.047244,0.023622,0.244094,-0.070866,-0.055118,-0.173228,-0.244094,0.110236,-0.11811,0.047244,0.070866,0.031496,0.,-0.03937,-0.047244,-0.023622,0.047244,0.070866,-0.19685,0.031496,-0.15748,-0.133858,0.125984,-0.141732,0.212598,0.007874,-0.094488,0.047244,0.03937,0.007874,-0.023622,0.007874,-0.03937,0.110236,-0.070866,-0.015748,-0.031496,-0.015748,-0.031496,-0.047244,-0.007874,-0.03937,0.03937,-0.086614,-0.03937,-0.031496,0.102362,0.125984,-0.110236,-0.007874,-0.015748,-0.007874,-0.070866,-0.023622,0.03937,0.094488,0.023622,0.062992,-0.110236,0.062992,-0.062992,0.015748,0.102362,-0.259843,0.086614,-0.07874,0.062992,0.047244,-0.141732,0.023622,-0.015748,0.015748,0.110236,-0.062992,0.07874,-0.188976,-0.015748,-0.023622,0.07874,0.094488,-0.062992,-0.055118,-0.062992,-0.204724,0.385827,-0.007874,-0.015748,0.007874,-0.141732,0.055118,-0.094488,0.070866,-0.102362,0.023622,-0.125984,0.188976,-0.007874,0.102362,0.055118,-0.188976,0.125984,-0.149606,-0.023622,0.141732,-0.047244,-0.070866,-0.015748,0.07874,-0.015748,0.086614,-0.007874,-0.110236,0.102362,-0.165354,0.007874,0.015748,-0.07874,-0.007874,-0.047244,0.062992,0.,-0.03937,0.07874,-0.070866,0.,-0.023622,0.047244,0.070866,-0.031496,0.094488,-0.212598,0.102362,-0.015748,0.055118,-0.055118,-0.149606,0.,0.141732,-0.173228,0.031496,0.015748,0.015748,0.03937,-0.055118,-0.03937,-0.11811,0.181102,-0.354331,0.244094,0.023622,-0.070866,0.062992,-0.086614,0.086614,0.031496,-0.070866,-0.102362,0.070866,-0.007874,-0.062992,-0.047244,-0.055118,-0.07874,0.212598,0.031496,-0.110236,0.031496,-0.047244,0.023622,0.031496,-0.007874,-0.070866,0.03937,0.094488,-0.047244,-0.086614,-0.047244,-0.094488,0.03937,0.07874,-0.086614,0.11811,-0.11811,0.133858,-0.062992,0.086614,-0.283465,0.023622,0.094488,0.023622,-0.07874,0.055118,-0.133858,0.015748,0.149606,-0.07874,0.015748,-0.094488,0.,0.047244,-0.094488,0.102362,-0.110236,0.,-0.015748,0.055118,-0.055118,0.149606,0.102362,-0.322835,0.267717,-0.165354,0.055118,-0.007874,-0.007874,0.015748,-0.11811,-0.031496,0.047244,-0.007874,-0.055118,0.015748,-0.023622,-0.031496,-0.03937,0.015748,-0.031496,0.015748,0.031496,-0.047244,0.055118,-0.125984,0.015748,0.031496,0.047244,-0.047244,-0.055118,0.031496,-0.070866,0.11811,0.062992,0.,-0.023622,-0.149606,0.,0.031496,-0.007874,0.03937,-0.086614,-0.031496,-0.031496,0.055118,0.062992,0.11811,-0.086614,0.015748,-0.07874,-0.015748,0.031496,-0.015748,0.055118,-0.03937,-0.007874,0.047244,-0.055118,0.047244,-0.031496,-0.047244,0.047244,-0.11811,0.,-0.015748,0.094488,-0.070866,0.07874,-0.125984,0.094488,-0.15748,0.055118,0.015748,-0.11811,0.055118,0.047244,0.,-0.110236,-0.007874,0.055118,-0.07874,0.07874,0.015748,-0.07874,-0.031496,-0.023622,0.,0.015748,0.015748,0.031496,-0.141732,-0.133858,0.055118,0.070866,0.228346,-0.204724,-0.047244,0.086614,0.11811,-0.11811,0.062992,-0.062992,-0.133858,0.23622,0.007874,-0.188976,-0.031496,0.007874,0.03937,0.031496,-0.062992,0.03937,-0.070866,-0.031496,0.031496,0.,-0.047244,0.03937,0.015748,0.,0.031496,-0.055118,0.023622,-0.125984,0.125984,-0.015748,-0.007874,-0.055118,0.007874,-0.007874,-0.070866,0.015748,-0.023622,-0.031496,-0.023622,-0.102362,0.047244,0.015748,-0.015748,0.086614,-0.220472,0.094488,-0.11811,0.204724,-0.094488,-0.047244,-0.023622,-0.070866,-0.15748,0.165354,0.070866,-0.007874,-0.110236,0.102362,0.110236,-0.07874,-0.094488,-0.125984,0.133858,0.141732,0.354331,0.149606,0.385827,-0.055118,0.03937,-0.251969,-0.425197,-0.055118,0.015748,0.102362,0.181102,0.07874,0.188976,0.070866,0.062992,-0.228346,-0.133858,-0.566929,-0.181102,-0.574803,-0.267717,0.023622,0.149606,0.267717,0.244094,0.,0.125984,-0.11811,0.023622,-0.086614,0.007874,-0.094488,-0.11811,0.007874,-0.133858,0.700787,-0.425197,0.259843,-0.543307,-0.251969,0.11811,-1.007874,-0.795276,-0.874016,-0.614173,0.771654,1.,0.543307,0.259843,-0.070866,-0.519685,0.188976,-0.015748,0.149606,0.,0.047244,-0.102362,-0.173228,0.11811,0.055118,0.173228,-0.23622,0.023622,-0.307087,0.07874,0.141732,-0.125984,-0.086614,0.062992,0.110236,-0.204724,0.133858,-0.047244,-0.007874,0.07874,-0.275591,0.03937,0.094488,-0.007874,0.110236,-0.149606,0.244094,0.047244,-0.228346,-0.181102,-0.456693,-0.244094,0.354331,-0.251969,0.110236,-0.110236,0.094488,0.007874,-0.275591,0.110236,0.425197,-0.409449,0.188976,-0.110236,-0.007874,0.228346,0.385827,0.141732,0.03937,0.133858,-0.527559,0.488189,-0.685039,0.622047,-0.188976,0.110236,0.070866,0.007874,-0.07874,0.11811,-0.314961,0.259843,0.417323,0.330709,0.188976,0.204724,0.472441,0.614173,0.047244,0.440945,-0.377953,-0.527559,-1.007874,0.346457,0.11811,-0.314961,0.149606,-0.598425,-0.299213,-0.204724,0.582677,-0.401575,0.80315,-0.84252,0.724409,0.606299,-0.606299,0.80315,-0.322835,-0.937008,0.795276,-0.338583,0.629921,-0.480315,-0.496063,0.267717,-0.259843,0.228346,-0.141732,-0.086614,0.07874,0.007874,-0.015748,0.125984,-0.023622,0.031496,-0.007874,-0.283465,0.055118,0.425197,0.023622,0.15748,0.062992,-0.023622,-0.251969,-0.23622,0.086614,-0.007874,0.149606,-0.015748,0.188976,-0.165354,-0.488189,-0.244094,-0.629921,-0.574803,-1.007874,-0.866142,-0.84252,0.181102,0.913386,0.606299,-0.385827,-0.062992,0.267717,0.433071,0.80315,-0.19685,0.141732,0.15748,0.031496,-0.047244,0.070866,0.228346,0.047244,0.031496,0.102362,0.275591,0.188976,-0.047244,-0.283465,-0.80315,0.212598,0.047244,-0.094488,-0.220472,0.102362,0.094488,-0.110236,-0.165354,0.228346,-0.291339,-0.102362,0.03937,0.15748,-0.362205,0.228346,-0.637795,-0.062992,-0.866142,0.251969,0.267717,-0.456693,0.377953,-0.354331,0.582677,-0.448819,0.527559,-0.086614,0.503937,0.,0.338583,1.,-0.811024,0.818898,-0.102362,-0.425197,0.188976,-1.007874,0.503937,-0.07874,-0.330709,-0.102362,-0.133858,0.259843,0.480315,-0.314961,0.125984,-0.086614,0.023622,-0.283465,-0.149606,0.204724,-0.094488,-0.19685,0.015748,-0.732283,0.433071,0.220472,0.204724,0.755906,-0.795276,0.456693,0.275591,-0.417323,-0.251969,-0.212598,0.11811,0.110236,0.086614,-0.275591,0.102362,-0.866142,1.,-0.173228,-0.133858,0.543307,-0.480315,0.606299,0.07874,-0.377953,0.165354,-0.354331,0.094488,0.188976,0.314961,-0.244094,-0.322835,-0.007874,0.125984,-0.15748,0.047244,0.,-0.188976,0.511811,-0.062992,0.385827,-0.385827,-0.220472,0.858268,-0.661417,-0.84252,0.653543,-0.220472,0.559055,-0.275591,0.259843,0.11811,0.330709,0.220472,-0.393701,-0.149606,0.968504,0.322835,0.141732,0.283465,-0.732283,0.771654,0.755906,-0.228346,-0.944882,-0.322835,-0.850394,-0.070866,0.110236,-0.125984,0.307087,-0.251969,0.448819,-0.204724,0.409449,-0.204724,-0.275591,0.031496,0.047244,-0.133858,0.149606,0.03937,0.212598,0.070866,-0.19685,-0.188976,0.212598,-0.023622,-0.062992,0.062992,0.023622,0.031496,0.007874,0.362205,-0.393701,0.086614,-0.19685,0.110236,0.055118,-0.464567,0.15748,0.070866,0.15748,-0.125984,-0.015748,-0.07874,0.188976,-0.094488,0.377953,-0.023622,-0.448819,0.125984,-0.133858,0.055118,-0.314961,0.472441,-0.086614,-0.07874,-0.212598,-0.19685,0.110236,-0.015748,0.125984,0.267717,-0.11811,-0.070866,-0.03937,-0.015748,0.023622,-0.086614,-0.047244,0.03937,-0.062992,0.031496,0.055118,-0.047244,0.015748,0.,-0.062992,-0.181102,-0.007874,0.212598,0.275591,-0.07874,-0.125984,-0.086614,0.031496,-0.007874,-0.07874,-0.007874,-0.055118,0.03937,-0.023622,0.086614,-0.125984,-0.062992,0.110236,-0.023622,-0.015748,-0.031496,-0.023622,-0.15748,-0.03937,0.086614,0.110236,0.133858,-0.062992,0.055118,0.03937,-0.015748,0.03937,0.023622,-0.173228,-0.102362,-0.047244,0.070866,-0.133858,-0.047244,-0.047244,-0.007874,0.141732,0.023622,-0.133858,0.062992,0.023622,0.165354,0.212598,-0.165354,-0.03937,-0.047244,-0.015748,0.007874,0.110236,-0.015748,-0.015748,-0.015748,0.07874,0.047244,-0.070866,-0.086614,0.070866,-0.07874,0.212598,-0.102362,0.23622,-0.102362,-0.19685,-0.007874,0.023622,-0.204724,0.102362,0.047244,0.11811,-0.362205,0.141732,-0.007874,0.15748,-0.15748,-0.094488,-0.007874,0.149606,-0.181102,-0.015748,0.188976,-0.259843,0.716535,-0.488189,0.023622,0.212598,-0.149606,-0.346457,0.535433,-0.354331,0.173228,0.15748,-0.346457,0.03937,0.007874,0.259843,0.228346,-0.417323,-0.244094,0.338583,-0.480315,-0.259843,-0.181102,-1.007874,-0.409449,-0.299213,0.133858,0.700787,0.15748,-0.472441,0.204724,-0.377953,0.267717,0.393701,-0.307087,0.133858,-0.354331,0.385827,-0.251969,-0.307087,0.110236,-0.267717,0.086614,0.503937,-0.362205,-0.23622,0.291339,0.377953,-0.228346,0.251969,0.125984,-0.125984,-0.330709,0.149606,-0.519685,0.244094,0.15748,-0.338583,0.220472,-0.133858,-0.346457,0.047244,-0.102362,0.149606,0.456693,0.070866,-0.385827,-0.362205,0.125984,0.133858,-0.11811,-0.055118,0.346457,-0.346457,0.275591,0.047244,-0.370079,0.322835,0.094488,-0.417323,0.425197,0.102362,-0.291339,0.047244,0.165354,-0.015748,-0.330709,0.440945,-0.070866,0.055118,0.015748,-0.23622,-0.204724,0.188976,-0.031496,0.031496,-0.023622,-0.401575,0.409449,0.204724,-0.299213,-0.102362,0.440945,-0.228346,-0.511811,0.629921,-0.204724,0.354331,-0.393701,-0.322835,0.031496,0.015748,0.047244,-0.007874,-0.031496,-0.551181,0.614173,-0.055118,-0.19685,0.047244,-0.149606,-0.094488,0.055118,-0.055118,-0.19685,0.181102,-0.275591,-0.110236,0.440945,-0.425197,0.141732,0.314961,0.19685,-0.015748,0.574803,-0.724409,0.566929,-0.566929,-0.102362,0.724409,-0.488189,0.251969,-0.275591,0.968504,-0.15748,0.244094,0.023622,-0.283465,0.275591,0.425197,-0.511811,-0.543307,0.125984,0.023622,0.330709,0.551181,-0.228346,0.110236,0.472441,-0.677165,0.047244,-0.212598,-0.645669,0.023622,-0.102362,-0.188976,0.267717,-0.110236,-0.055118,0.015748,-0.228346,0.055118,-0.015748,0.086614,0.228346,-0.125984,0.03937,0.086614,-0.070866,0.125984,-0.070866,-0.377953,0.141732,0.440945,-0.307087,-0.251969,0.251969,0.19685,0.031496,-0.03937,0.448819,0.15748,0.464567,0.047244,-0.291339,-0.448819,-0.480315,-0.070866,-0.125984,0.464567,0.047244,-0.055118,-0.007874,-0.244094,0.102362,0.023622,-0.661417,0.346457,-0.212598,0.07874,-0.188976,-0.133858,0.173228,-0.125984,0.031496,0.275591,0.212598,0.,-0.440945,-0.362205,0.393701,-0.015748,-0.267717,-0.031496,0.535433,-0.661417,0.590551,-0.653543,-0.456693,0.496063,0.023622,0.023622,-0.070866,-0.338583,0.503937,-0.07874,-0.480315,0.,0.188976,-0.086614,0.133858,-0.220472,-0.055118,0.173228,-0.03937,0.338583,-0.370079,-0.086614,-0.448819,0.818898,0.047244,-0.015748,-0.590551,0.188976,0.11811,-0.346457,0.787402,-0.740157,-0.015748,-0.267717,-0.15748,-0.259843,-0.015748,-0.149606,-0.472441,0.259843,0.401575,0.023622,0.102362,-0.23622,0.322835,0.173228,0.314961,0.055118,0.19685,0.,0.062992,-0.188976,-0.086614,-0.267717,-0.346457,-0.015748,0.275591,0.047244,0.440945,0.031496,-0.653543,-0.519685,-0.19685,0.992126,-0.07874,0.661417,0.,0.181102,-0.952756,0.472441,0.188976,-0.291339,0.488189,0.204724,-0.07874,-0.826772,1.,-0.133858,0.393701,0.047244,-0.496063,0.322835,-0.606299,0.314961,-0.149606,-0.062992,0.629921,0.220472,-0.377953,0.259843,-0.023622,1.,0.062992,0.204724,0.228346,-0.716535,0.850394,-0.346457,-0.047244,-0.472441,-0.590551,-0.661417,0.527559,0.11811,-0.031496,-0.031496,-0.267717,-0.19685,0.181102,-0.346457,0.244094,0.165354,-0.141732,0.23622,-0.007874,0.03937,-0.259843,-0.086614,0.133858,-0.141732,0.488189,0.031496,-0.055118,-0.259843,0.370079,-0.283465,-0.80315,0.606299,-0.346457,0.787402,-0.480315,-0.173228,-0.110236,0.086614,0.086614,-0.070866,0.07874,-0.102362,-0.047244,0.204724,-0.149606,-0.015748,-0.094488,-0.094488,-0.23622,0.055118,0.228346,-0.031496,0.070866,-0.23622,0.133858,-0.070866,-0.086614,0.015748,0.03937,-0.03937,-0.015748,-0.015748,0.007874,-0.062992,-0.007874,-0.102362,0.015748,0.110236,0.,-0.133858,-0.23622,-0.094488,0.299213,0.275591,0.031496,0.007874,0.149606,0.133858,0.086614,-0.125984,-0.354331,-0.070866,0.007874,0.015748,-0.094488,0.015748,-0.007874,-0.03937,-0.094488,0.047244,0.015748,-0.07874,-0.007874,-0.015748,-0.031496,0.,-0.062992,-0.03937,0.094488,-0.015748,-0.181102,-0.03937,-0.244094,0.15748,0.393701,0.07874,0.07874,-0.023622,-0.173228,-0.047244,0.070866,-0.07874,-0.07874,0.03937,0.070866,-0.062992,-0.007874,-0.086614,0.023622,-0.141732,0.299213,0.047244,-0.015748,-0.094488,0.110236,-0.070866,0.07874,-0.007874,-0.03937,0.007874,0.299213,-0.110236,-0.070866,-0.409449,-0.440945,0.629921,-0.110236,0.102362,0.015748,-0.094488,0.03937,-0.062992,-0.007874,-0.015748,0.062992,-0.165354,-0.03937,0.070866,-0.047244,0.488189,-0.149606,-0.141732,0.,0.031496,-0.015748,0.007874,0.007874,-0.015748,-0.062992,-0.03937,0.03937,0.023622,-0.070866,0.047244,0.03937,0.07874,-0.055118,-0.007874,-0.03937,0.094488,0.007874,-0.070866,0.102362,0.165354,-0.03937,-0.102362,-0.15748,-0.425197,0.291339,-0.055118,0.023622,-0.165354,-0.125984,0.094488,-0.102362,0.007874,-0.149606,0.244094,0.220472,-0.023622,0.023622,-0.070866,-0.228346,0.149606,-0.07874,-0.023622,0.023622,0.,0.070866,-0.141732,-0.070866,0.007874,-0.023622,-0.015748,0.031496,-0.070866,-0.047244,0.023622,-0.023622,-0.015748,0.133858,0.,-0.110236,-0.031496,-0.031496,0.070866,0.031496,0.,-0.031496,-0.031496,0.031496,-0.007874,-0.086614,0.007874,-0.023622,-0.141732,0.03937,0.141732,-0.094488,0.094488,-0.173228,-0.03937,0.031496,0.03937,-0.110236,-0.047244,0.047244,0.,0.023622,-0.031496,0.,-0.015748,0.094488,-0.086614,-0.023622,0.086614,-0.055118,-0.03937,-0.055118,0.015748,0.133858,0.07874,-0.015748,-0.094488,0.055118,0.055118,-0.102362,0.023622,0.,-0.007874,0.007874,-0.031496,-0.07874,-0.03937,0.102362,0.,0.047244,-0.047244,0.023622,0.015748,-0.062992,0.03937,-0.007874,-0.047244,0.023622,-0.023622,0.023622,-0.015748,0.015748,-0.007874,0.165354,-0.133858,0.03937,0.007874,-0.204724,0.283465,-0.070866,0.007874,-0.086614,-0.15748,0.062992,0.149606,-0.110236,0.133858,-0.11811,-0.181102,0.007874,0.188976,-0.149606,0.094488,-0.023622,0.007874,-0.070866,-0.047244,0.149606,-0.259843,0.149606,-0.204724,0.283465,-0.165354,-0.047244,0.062992,0.03937,-0.055118,0.031496,0.,-0.062992,0.047244,-0.062992,0.03937,0.094488,-0.03937,0.110236,-0.267717,0.047244,-0.015748,0.188976,0.015748,-0.023622,-0.086614,0.047244,-0.141732,-0.110236,0.094488,-0.015748,0.15748,-0.19685,-0.062992,0.110236,0.007874,-0.102362,0.,0.086614,-0.15748,0.047244,0.023622,-0.251969,0.19685,-0.094488,0.015748,-0.062992,0.055118,0.031496,0.125984,-0.11811,0.062992,-0.19685,0.070866,0.,0.055118,-0.023622,-0.125984,0.007874,0.055118,0.125984,-0.070866,0.055118,-0.181102,-0.015748,0.03937,-0.03937,-0.031496,0.,-0.047244,0.023622,0.11811,-0.023622,-0.094488,-0.03937,-0.102362,-0.007874,0.102362,0.015748,0.007874,0.086614,-0.102362,-0.015748,0.,-0.023622,0.03937,0.031496,-0.173228,-0.094488,0.031496,0.03937,-0.023622,0.086614,-0.110236,0.031496,0.03937,-0.070866,0.086614,-0.165354,0.031496,-0.023622,0.03937,-0.03937,-0.125984,0.102362,-0.070866,0.055118,0.07874,-0.07874,0.007874,-0.062992,-0.015748,0.086614,-0.007874,0.047244,0.070866,-0.07874
