point,e_1,e_2,e_3,e_4,e_5,e_6,e_7,e_8,bars,beat,time_value,finger0,-0.007874,-0.007874,0.007874,-0.07874,-0.141732,0.125984,0.007874,0.19685,7,1,0.804233,01,0.015748,0.,-0.015748,0.062992,0.188976,0.070866,0.023622,-0.094488,7,1,0.784883,02,-0.007874,-0.015748,-0.023622,-0.015748,-0.212598,-0.055118,-0.023622,0.07874,7,1,0.765533,03,0.015748,-0.007874,0.015748,-0.007874,0.102362,0.,-0.015748,0.102362,7,1,0.765533,04,-0.015748,-0.023622,0.,0.031496,-0.070866,-0.031496,-0.031496,0.03937,7,1,0.765533,05,0.,-0.023622,-0.023622,-0.047244,-0.015748,-0.055118,-0.007874,0.110236,7,1,0.746183,06,-0.023622,-0.015748,-0.007874,-0.086614,-0.11811,0.,-0.03937,0.11811,7,1,0.746183,07,-0.007874,0.,0.,0.070866,-0.007874,0.007874,0.023622,0.062992,7,1,0.746183,08,0.,-0.007874,0.,0.062992,0.110236,0.055118,0.031496,0.062992,7,1,0.746183,09,-0.015748,0.015748,-0.007874,-0.031496,-0.062992,0.031496,-0.007874,0.086614,7,1,0.707483,010,-0.007874,-0.007874,-0.023622,0.,0.03937,-0.023622,0.,0.023622,7,1,0.707483,011,0.,-0.007874,-0.015748,0.007874,0.,0.007874,0.,0.015748,7,1,0.707483,012,-0.015748,-0.007874,-0.023622,-0.007874,0.11811,0.03937,-0.023622,0.188976,7,1,0.707483,013,-0.007874,0.007874,-0.007874,0.023622,-0.11811,-0.086614,0.007874,-0.007874,7,1,0.668783,014,-0.015748,0.,-0.03937,-0.070866,-0.047244,-0.047244,-0.007874,-0.047244,7,1,0.668783,015,-0.007874,0.,0.015748,-0.015748,0.07874,0.015748,-0.007874,0.102362,7,1,0.668783,016,0.007874,-0.007874,0.,-0.03937,0.023622,0.047244,0.007874,0.023622,7,1,0.649433,017,0.,-0.007874,-0.015748,-0.031496,-0.055118,-0.03937,-0.047244,0.228346,7,1,0.649433,018,0.,0.007874,-0.007874,0.015748,0.023622,-0.070866,-0.015748,0.055118,7,1,0.630083,019,-0.023622,0.007874,0.015748,0.03937,0.023622,0.,0.,-0.03937,7,1,0.630083,020,-0.007874,-0.031496,-0.007874,-0.031496,-0.023622,-0.03937,0.007874,-0.03937,7,1,0.630083,021,0.007874,0.,0.015748,-0.007874,0.03937,0.062992,-0.015748,0.165354,7,1,0.610733,022,-0.015748,-0.023622,-0.03937,-0.023622,-0.102362,-0.055118,-0.023622,0.031496,7,1,0.610733,023,-0.007874,-0.007874,-0.015748,0.,0.062992,-0.031496,0.007874,0.023622,7,1,0.610733,024,0.,-0.007874,-0.007874,0.007874,-0.031496,0.015748,0.,-0.07874,7,1,0.610733,025,0.015748,0.015748,0.023622,0.031496,0.055118,0.023622,-0.007874,-0.062992,7,1,0.572033,026,-0.007874,-0.015748,-0.007874,0.,0.094488,0.007874,0.007874,-0.015748,7,1,0.572033,027,0.,0.007874,0.,-0.047244,-0.220472,0.015748,-0.03937,0.007874,7,1,0.552683,028,-0.007874,0.,-0.023622,-0.031496,-0.007874,-0.03937,0.,-0.070866,7,1,0.552683,029,-0.007874,-0.023622,-0.015748,0.031496,0.062992,0.023622,-0.007874,0.141732,7,1,0.533333,030,-0.007874,-0.015748,-0.031496,-0.023622,-0.055118,-0.062992,-0.015748,-0.070866,7,1,0.533333,031,-0.015748,-0.015748,-0.023622,-0.031496,-0.055118,-0.031496,-0.007874,-0.031496,7,1,0.533333,032,-0.015748,0.,0.,0.007874,0.086614,0.03937,0.015748,0.,7,1,0.533333,033,0.,0.015748,0.,-0.03937,-0.173228,-0.03937,-0.031496,-0.070866,7,1,0.513983,034,0.015748,0.023622,0.047244,0.047244,0.244094,0.11811,0.031496,0.031496,7,1,0.513983,035,-0.023622,-0.031496,-0.031496,-0.023622,-0.11811,-0.03937,0.,-0.031496,7,1,0.494633,036,0.,-0.015748,-0.007874,-0.023622,-0.07874,-0.047244,-0.062992,-0.062992,7,1,0.494633,037,-0.023622,-0.015748,-0.015748,-0.070866,-0.070866,-0.007874,0.03937,0.031496,7,1,0.475283,038,0.,-0.007874,0.015748,0.023622,0.11811,0.,0.,0.03937,7,1,0.475283,039,0.,-0.015748,-0.015748,0.,0.03937,-0.007874,0.007874,-0.023622,7,1,0.455933,040,-0.007874,-0.007874,-0.015748,-0.023622,-0.03937,-0.015748,-0.015748,-0.03937,7,1,0.455933,041,-0.007874,-0.023622,0.,0.023622,0.03937,-0.023622,0.007874,-0.031496,7,1,0.455933,042,-0.007874,-0.007874,-0.007874,-0.03937,-0.307087,-0.023622,-0.007874,0.,7,1,0.455933,043,-0.007874,-0.007874,0.,-0.007874,0.133858,0.,-0.015748,-0.023622,7,1,0.455933,044,-0.015748,-0.015748,0.,0.,-0.031496,-0.007874,-0.047244,0.031496,7,1,0.455933,045,-0.031496,-0.015748,0.,0.,0.,0.,0.,0.062992,7,1,0.417234,046,-0.015748,-0.015748,0.,-0.007874,0.,-0.007874,-0.015748,0.,7,1,0.417234,047,0.007874,0.023622,-0.007874,-0.015748,-0.023622,0.007874,-0.015748,-0.031496,7,1,0.397884,048,0.007874,0.023622,-0.007874,0.007874,0.,0.,0.031496,0.07874,7,1,0.397884,049,0.007874,-0.023622,0.,0.015748,0.,-0.015748,-0.023622,-0.141732,7,1,0.378534,050,0.015748,0.,0.,0.015748,0.03937,-0.007874,0.,-0.11811,7,1,0.378534,051,-0.007874,-0.023622,-0.015748,-0.007874,-0.03937,0.015748,-0.015748,0.031496,7,1,0.378534,052,-0.015748,0.,-0.015748,0.,0.007874,0.015748,-0.015748,-0.102362,7,1,0.378534,053,0.,0.007874,-0.007874,0.007874,0.015748,-0.007874,0.,0.165354,7,1,0.339834,054,-0.015748,0.,0.,-0.007874,-0.015748,0.007874,-0.015748,0.007874,7,1,0.339834,055,-0.007874,-0.007874,0.007874,0.007874,-0.031496,-0.031496,0.007874,0.015748,7,1,0.339834,056,-0.015748,-0.015748,-0.015748,-0.031496,-0.007874,-0.031496,0.007874,-0.062992,7,1,0.339834,057,0.03937,0.,-0.031496,-0.015748,-0.015748,-0.007874,0.,-0.031496,7,1,0.320484,058,-0.007874,0.,-0.007874,0.007874,0.015748,0.007874,0.007874,-0.007874,7,1,0.320484,059,0.007874,-0.007874,0.015748,-0.031496,-0.055118,-0.023622,-0.007874,0.031496,7,1,0.301134,060,-0.023622,0.007874,-0.007874,0.015748,0.055118,0.007874,0.007874,0.110236,7,1,0.301134,061,-0.031496,-0.023622,-0.03937,-0.007874,-0.023622,0.,-0.007874,-0.220472,7,1,0.281784,062,0.,0.015748,-0.007874,0.,0.031496,-0.015748,-0.015748,0.007874,7,1,0.281784,063,0.015748,0.,0.,0.,-0.023622,-0.023622,-0.007874,0.086614,7,1,0.262434,064,-0.015748,-0.023622,0.,0.03937,-0.015748,0.007874,-0.015748,-0.047244,7,1,0.262434,065,-0.031496,0.007874,0.007874,-0.007874,0.007874,0.023622,-0.015748,-0.047244,7,1,0.243084,066,-0.03937,0.,0.,-0.007874,0.047244,0.03937,-0.007874,0.03937,7,1,0.243084,067,0.023622,0.,-0.007874,-0.015748,-0.007874,0.007874,-0.007874,0.031496,7,1,0.243084,068,0.007874,0.007874,0.015748,0.,-0.023622,0.023622,0.007874,0.031496,7,1,0.243084,069,0.023622,-0.015748,-0.015748,0.015748,0.023622,0.015748,0.015748,0.133858,7,1,0.223734,070,0.023622,-0.023622,-0.007874,-0.047244,-0.204724,-0.03937,-0.031496,-0.03937,7,1,0.223734,071,-0.031496,-0.007874,-0.007874,0.,0.110236,-0.015748,0.015748,0.055118,7,1,0.204384,072,-0.031496,0.,-0.031496,-0.03937,-0.062992,0.,0.,0.047244,7,1,0.204384,073,-0.007874,0.007874,0.007874,0.023622,0.007874,-0.031496,-0.007874,0.007874,7,1,0.165684,074,-0.007874,0.,-0.007874,0.015748,0.,-0.015748,-0.007874,0.015748,7,1,0.165684,075,-0.023622,-0.007874,-0.007874,0.007874,0.031496,-0.047244,-0.047244,-0.031496,7,1,0.165684,076,0.015748,-0.015748,-0.023622,-0.03937,-0.007874,-0.047244,0.,0.07874,7,1,0.165684,077,-0.03937,-0.015748,-0.007874,-0.023622,-0.047244,-0.023622,-0.007874,0.,7,1,0.146334,078,-0.015748,-0.007874,0.,0.007874,-0.023622,-0.047244,-0.007874,0.110236,7,1,0.146334,079,0.007874,-0.023622,-0.031496,-0.062992,-0.03937,0.,-0.015748,-0.007874,7,1,0.146334,080,0.023622,-0.007874,-0.023622,0.,-0.023622,0.015748,-0.015748,0.015748,7,1,0.146334,081,-0.03937,0.007874,0.015748,0.,-0.031496,-0.007874,-0.015748,-0.03937,7,1,0.107634,082,-0.023622,-0.031496,-0.031496,-0.007874,0.015748,-0.055118,0.,0.007874,7,1,0.107634,083,-0.062992,0.,0.007874,0.015748,0.023622,-0.062992,-0.023622,-0.047244,7,1,0.107634,084,0.007874,-0.031496,-0.023622,-0.031496,0.007874,-0.015748,0.,0.047244,7,1,0.088284,085,0.047244,0.,0.007874,0.007874,0.007874,-0.007874,0.,-0.007874,7,1,0.068934,086,0.007874,0.007874,0.023622,0.015748,0.,0.03937,0.,0.03937,7,1,0.068934,087,0.,-0.023622,-0.015748,-0.070866,-0.055118,0.047244,0.007874,0.110236,7,1,0.068934,088,-0.023622,0.007874,0.,-0.007874,-0.023622,0.031496,-0.031496,-0.133858,7,1,0.049584,089,-0.015748,0.023622,-0.007874,0.047244,0.023622,0.031496,-0.015748,0.007874,7,1,0.030234,090,-0.007874,-0.015748,-0.023622,-0.015748,-0.047244,0.07874,-0.015748,0.015748,7,1,0.030234,091,-0.015748,-0.015748,-0.007874,-0.086614,-0.023622,0.062992,0.,0.007874,7,1,0.030234,092,0.007874,0.015748,0.086614,0.062992,-0.007874,0.023622,0.,0.062992,7,1,0.030234,093,0.,0.,-0.015748,-0.015748,-0.03937,-0.023622,0.015748,-0.047244,7,1,0.010884,094,-0.015748,-0.015748,-0.031496,0.023622,-0.031496,-0.07874,-0.015748,0.,7,1,0.010884,095,-0.015748,-0.023622,-0.03937,-0.031496,0.,0.015748,-0.015748,0.047244,6,4,0.991534,096,-0.015748,0.,-0.007874,-0.007874,0.023622,-0.015748,-0.023622,0.007874,6,4,0.991534,097,0.,-0.007874,-0.007874,-0.015748,0.031496,-0.015748,-0.015748,0.,6,4,0.991534,098,0.023622,-0.015748,-0.015748,-0.015748,-0.023622,-0.03937,0.007874,0.023622,6,4,0.991534,099,0.,-0.007874,-0.023622,-0.070866,-0.007874,-0.023622,0.,0.031496,6,4,0.952834,0100,-0.007874,-0.047244,-0.007874,-0.03937,-0.031496,-0.015748,-0.031496,-0.007874,6,4,0.952834,0101,-0.031496,-0.007874,0.007874,-0.007874,0.,-0.015748,-0.023622,-0.070866,6,4,0.933485,0102,0.,0.007874,-0.015748,0.,0.031496,-0.047244,0.,-0.007874,6,4,0.933485,0103,-0.007874,-0.015748,-0.055118,-0.125984,-0.015748,-0.11811,-0.015748,-0.023622,6,4,0.933485,0104,-0.03937,0.,0.023622,0.023622,-0.023622,-0.133858,0.,-0.07874,6,4,0.933485,0105,-0.047244,-0.007874,-0.023622,-0.055118,-0.047244,0.102362,-0.015748,-0.07874,6,4,0.914135,0106,0.,0.015748,0.,0.007874,0.,0.133858,-0.031496,-0.031496,6,4,0.914135,0107,-0.062992,0.,0.086614,0.275591,0.03937,0.023622,-0.023622,0.023622,6,4,0.914135,0108,0.07874,0.,-0.03937,-0.047244,-0.031496,-0.007874,0.023622,0.015748,6,4,0.914135,0109,0.031496,-0.031496,0.023622,0.,0.03937,0.03937,0.047244,-0.031496,6,4,0.875435,0110,0.031496,-0.007874,0.023622,-0.023622,-0.031496,-0.062992,0.007874,0.023622,6,4,0.875435,0111,0.062992,0.031496,-0.031496,0.015748,-0.007874,-0.070866,-0.023622,-0.031496,6,4,0.856085,0112,-0.062992,-0.015748,-0.055118,-0.031496,-0.023622,-0.133858,-0.015748,0.007874,6,4,0.856085,0113,-0.047244,-0.015748,-0.03937,0.,-0.062992,-0.094488,-0.031496,0.,6,4,0.836735,0114,0.03937,0.023622,0.007874,-0.031496,-0.047244,-0.07874,-0.031496,0.047244,6,4,0.836735,0115,-0.023622,-0.015748,-0.023622,0.,0.023622,-0.070866,-0.015748,0.086614,6,4,0.836735,0116,-0.031496,-0.015748,-0.007874,0.007874,-0.03937,-0.086614,-0.015748,0.023622,6,4,0.836735,0117,-0.015748,0.,0.015748,-0.007874,0.015748,-0.031496,0.,0.03937,6,4,0.817385,0118,0.023622,-0.015748,0.015748,0.03937,0.07874,0.141732,-0.007874,0.062992,6,4,0.817385,0119,0.,-0.007874,-0.03937,-0.055118,-0.125984,0.188976,0.007874,-0.023622,6,4,0.798035,0120,0.03937,0.007874,0.007874,-0.062992,0.015748,0.314961,-0.015748,-0.047244,6,4,0.798035,0121,0.,-0.015748,0.047244,0.094488,0.023622,0.023622,0.007874,0.212598,6,4,0.778685,0122,-0.07874,-0.023622,-0.031496,-0.023622,0.03937,-0.031496,0.023622,0.,6,4,0.778685,0123,-0.007874,-0.015748,0.,-0.015748,0.023622,-0.070866,-0.031496,-0.03937,6,4,0.759335,0124,-0.031496,-0.015748,-0.007874,0.015748,-0.007874,-0.070866,-0.015748,0.062992,6,4,0.759335,0125,-0.007874,0.007874,0.031496,0.023622,0.031496,-0.047244,-0.015748,-0.062992,6,4,0.759335,0126,-0.047244,0.007874,0.,0.031496,0.,0.023622,0.03937,0.015748,6,4,0.759335,0127,0.047244,0.007874,-0.007874,-0.007874,-0.007874,-0.047244,0.,0.03937,6,4,0.739985,0128,-0.007874,-0.015748,-0.007874,0.,-0.031496,-0.055118,-0.007874,-0.007874,6,4,0.739985,0129,0.015748,-0.023622,-0.007874,0.,-0.015748,-0.03937,0.,0.220472,6,4,0.720635,0130,-0.015748,-0.031496,-0.007874,0.007874,0.015748,0.031496,0.03937,0.070866,6,4,0.720635,0131,-0.062992,-0.023622,-0.047244,0.007874,-0.015748,-0.03937,-0.062992,-0.007874,6,4,0.701285,0132,-0.031496,-0.047244,-0.110236,-0.141732,-0.031496,-0.062992,-0.007874,0.023622,6,4,0.701285,0133,0.,0.,0.023622,-0.023622,-0.031496,-0.03937,-0.031496,-0.023622,6,4,0.681935,0134,0.007874,0.007874,0.023622,0.07874,0.03937,-0.031496,0.007874,0.015748,6,4,0.681935,0135,-0.007874,0.047244,0.102362,0.102362,0.055118,0.070866,0.007874,0.023622,6,4,0.662585,0136,-0.023622,0.023622,0.015748,-0.03937,-0.007874,0.023622,0.015748,0.031496,6,4,0.662585,0137,-0.015748,0.,-0.047244,0.03937,0.,0.094488,-0.047244,-0.007874,6,4,0.643235,0138,0.015748,-0.015748,-0.023622,-0.133858,-0.031496,-0.023622,0.015748,0.03937,6,4,0.643235,0139,-0.03937,-0.023622,-0.023622,-0.055118,-0.023622,-0.055118,-0.023622,0.015748,6,4,0.643235,0140,0.062992,-0.023622,-0.015748,-0.070866,0.,-0.031496,0.015748,0.007874,6,4,0.643235,0141,0.031496,-0.015748,0.03937,0.07874,0.062992,-0.055118,-0.031496,0.11811,6,4,0.604535,0142,-0.055118,-0.007874,-0.031496,-0.047244,-0.15748,-0.062992,-0.086614,-0.047244,6,4,0.604535,0143,-0.03937,-0.015748,-0.023622,-0.03937,0.007874,0.023622,0.047244,0.055118,6,4,0.604535,0144,0.031496,-0.031496,-0.015748,-0.062992,0.023622,0.03937,0.007874,0.102362,6,4,0.604535,0145,0.031496,0.023622,0.055118,0.086614,0.007874,0.047244,-0.007874,-0.125984,6,4,0.565835,0146,0.,-0.023622,-0.047244,-0.125984,-0.031496,0.,0.023622,0.007874,6,4,0.565835,0147,0.031496,0.023622,0.03937,0.125984,0.070866,0.023622,-0.007874,0.15748,6,4,0.565835,0148,-0.062992,0.015748,-0.015748,-0.070866,-0.03937,-0.102362,-0.03937,0.031496,6,4,0.565835,0149,-0.007874,-0.047244,-0.055118,-0.07874,-0.055118,-0.023622,0.031496,-0.086614,6,4,0.546485,0150,-0.023622,0.023622,0.031496,0.055118,0.015748,0.007874,-0.070866,0.047244,6,4,0.527135,0151,-0.007874,-0.031496,-0.023622,0.007874,0.031496,0.023622,0.047244,0.007874,6,4,0.527135,0152,0.055118,0.,-0.062992,-0.141732,-0.047244,0.07874,-0.031496,-0.031496,6,4,0.527135,0153,-0.015748,-0.023622,-0.070866,-0.031496,-0.023622,-0.086614,0.007874,0.141732,6,4,0.507785,0154,-0.007874,0.015748,0.015748,0.015748,-0.015748,-0.047244,-0.015748,0.03937,6,4,0.507785,0155,-0.007874,0.007874,0.,-0.070866,-0.11811,-0.015748,-0.023622,-0.015748,6,4,0.507785,0156,0.015748,0.007874,0.188976,0.574803,0.141732,0.03937,0.007874,0.062992,6,4,0.488435,0157,0.015748,-0.047244,-0.133858,-0.377953,-0.07874,0.,-0.031496,-0.03937,6,4,0.469085,0158,-0.015748,-0.007874,-0.047244,-0.047244,-0.023622,0.031496,-0.023622,-0.03937,6,4,0.469085,0159,0.,0.,0.,-0.015748,-0.015748,0.015748,-0.007874,0.062992,6,4,0.469085,0160,-0.07874,0.,-0.023622,0.015748,0.,0.055118,0.007874,0.055118,6,4,0.449735,0161,-0.047244,0.023622,0.,-0.007874,-0.015748,-0.031496,0.015748,-0.031496,6,4,0.430385,0162,0.,-0.023622,0.007874,0.007874,-0.015748,0.,0.,-0.055118,6,4,0.430385,0163,0.015748,-0.031496,-0.015748,0.,0.,-0.031496,-0.007874,0.015748,6,4,0.430385,0164,0.015748,-0.007874,-0.015748,-0.055118,-0.023622,-0.015748,-0.03937,-0.03937,6,4,0.430385,0165,0.,-0.015748,-0.015748,-0.023622,-0.047244,0.007874,-0.007874,-0.015748,6,4,0.411036,0166,-0.015748,-0.015748,-0.015748,-0.03937,-0.007874,0.015748,-0.031496,-0.015748,6,4,0.411036,0167,0.007874,-0.007874,-0.015748,0.,0.007874,0.,0.015748,-0.023622,6,4,0.391686,0168,0.,-0.007874,-0.015748,-0.015748,-0.03937,-0.03937,-0.015748,0.015748,6,4,0.391686,0169,-0.015748,-0.007874,-0.007874,-0.031496,-0.015748,0.015748,-0.007874,-0.062992,6,4,0.372336,0170,-0.007874,0.015748,0.031496,0.031496,0.086614,0.07874,0.015748,-0.031496,6,4,0.372336,0171,-0.007874,-0.023622,-0.015748,-0.055118,-0.062992,-0.133858,-0.015748,0.031496,6,4,0.372336,0172,-0.023622,0.007874,-0.015748,-0.007874,-0.047244,-0.086614,-0.007874,0.015748,6,4,0.372336,0173,0.,-0.015748,0.,0.015748,0.07874,-0.047244,-0.007874,0.,6,4,0.333636,0174,-0.007874,0.015748,0.,-0.023622,-0.015748,-0.03937,-0.015748,-0.031496,6,4,0.333636,0175,0.,-0.03937,-0.031496,-0.007874,-0.102362,0.125984,0.,0.023622,6,4,0.314286,0176,0.007874,-0.031496,-0.023622,0.,0.007874,-0.055118,-0.015748,-0.031496,6,4,0.314286,0177,-0.03937,0.,0.023622,-0.031496,0.007874,-0.15748,-0.015748,-0.023622,6,4,0.314286,0178,-0.007874,0.007874,0.015748,0.070866,0.062992,-0.11811,-0.007874,-0.007874,6,4,0.314286,0179,-0.007874,-0.023622,-0.023622,0.023622,0.110236,0.015748,-0.015748,-0.03937,6,4,0.294936,0180,0.,0.023622,0.031496,-0.023622,-0.133858,0.086614,0.007874,-0.03937,6,4,0.294936,0181,0.,0.,-0.007874,-0.03937,-0.015748,0.228346,0.007874,0.015748,6,4,0.294936,0182,0.007874,-0.047244,-0.03937,0.015748,0.023622,-0.047244,0.007874,0.086614,6,4,0.294936,0183,-0.015748,0.,-0.023622,0.007874,0.07874,0.007874,-0.023622,-0.070866,6,4,0.256236,0184,-0.015748,-0.047244,-0.031496,-0.031496,-0.11811,-0.055118,-0.015748,-0.047244,6,4,0.256236,0185,0.,-0.007874,0.023622,0.047244,0.015748,-0.023622,-0.015748,-0.055118,6,4,0.236886,0186,0.,0.007874,0.,-0.015748,-0.094488,0.03937,-0.007874,-0.015748,6,4,0.236886,0187,-0.007874,-0.023622,-0.023622,-0.03937,-0.11811,0.,0.007874,0.031496,6,4,0.217536,0188,-0.015748,-0.007874,-0.023622,0.023622,0.307087,0.11811,0.015748,-0.062992,6,4,0.217536,0189,0.007874,0.007874,-0.015748,-0.023622,-0.07874,-0.086614,-0.015748,-0.062992,6,4,0.217536,0190,-0.023622,-0.023622,-0.03937,0.007874,-0.149606,-0.047244,-0.031496,0.,6,4,0.217536,0191,-0.015748,-0.015748,-0.023622,-0.031496,0.07874,0.007874,-0.015748,-0.055118,6,4,0.217536,0192,0.,0.023622,0.070866,0.047244,-0.015748,-0.015748,-0.007874,0.,6,4,0.217536,0193,-0.007874,-0.023622,-0.055118,-0.055118,-0.023622,-0.023622,0.007874,0.094488,6,4,0.178836,0194,0.007874,-0.015748,0.,0.015748,0.031496,0.015748,0.007874,-0.031496,6,4,0.178836,0195,0.007874,0.031496,0.070866,-0.03937,0.,0.015748,0.,0.125984,6,4,0.159486,0196,-0.023622,-0.031496,-0.015748,-0.031496,-0.070866,0.055118,-0.015748,0.047244,6,4,0.159486,0197,0.015748,0.023622,0.015748,0.15748,0.031496,0.007874,0.007874,0.055118,6,4,0.140136,0198,-0.007874,-0.015748,-0.015748,-0.031496,0.007874,-0.015748,-0.015748,0.023622,6,4,0.140136,0199,-0.007874,-0.007874,-0.031496,-0.11811,-0.015748,-0.102362,-0.007874,0.110236,6,4,0.140136,0200,0.015748,0.007874,0.,0.055118,0.007874,-0.125984,-0.007874,-0.007874,6,4,0.140136,0201,-0.007874,-0.007874,-0.007874,0.007874,0.023622,-0.03937,-0.007874,-0.023622,6,4,0.120786,0202,0.007874,-0.007874,-0.015748,-0.031496,0.,0.07874,0.023622,0.031496,6,4,0.120786,0203,0.007874,0.,-0.015748,-0.047244,-0.07874,0.007874,-0.015748,-0.141732,6,4,0.101436,0204,0.,0.007874,0.007874,0.047244,-0.007874,0.015748,0.,0.015748,6,4,0.101436,0205,-0.031496,-0.015748,-0.015748,0.007874,0.07874,0.102362,0.007874,0.,6,4,0.082086,0206,-0.015748,-0.015748,-0.03937,0.047244,0.03937,-0.086614,-0.031496,-0.031496,6,4,0.082086,0207,0.007874,0.007874,0.023622,0.007874,0.047244,0.015748,-0.023622,-0.015748,6,4,0.062736,0208,-0.015748,-0.007874,0.007874,0.03937,-0.031496,0.,0.007874,0.023622,6,4,0.062736,0209,0.,-0.007874,-0.031496,-0.165354,-0.047244,0.,0.015748,-0.007874,6,4,0.043386,0210,0.,-0.023622,0.055118,0.062992,0.031496,-0.015748,-0.015748,0.031496,6,4,0.043386,0211,-0.015748,-0.007874,-0.015748,0.023622,0.007874,-0.086614,-0.015748,0.03937,6,4,0.024036,0212,-0.023622,-0.015748,-0.031496,-0.055118,0.023622,0.015748,0.023622,0.007874,6,4,0.024036,0213,-0.023622,-0.007874,0.023622,-0.031496,-0.23622,-0.023622,0.015748,0.015748,6,4,0.004686,0214,0.,-0.047244,-0.047244,0.007874,0.11811,0.062992,-0.007874,0.03937,6,4,0.004686,0215,-0.007874,-0.023622,-0.07874,-0.110236,-0.102362,-0.055118,-0.007874,0.070866,6,4,0.004686,0216,-0.015748,-0.015748,0.015748,0.133858,0.125984,0.,-0.031496,0.086614,6,4,0.004686,0217,-0.007874,0.,-0.015748,-0.102362,-0.031496,0.,-0.007874,-0.03937,6,3,0.985336,0218,0.007874,0.007874,0.015748,-0.007874,0.047244,0.,0.023622,0.11811,6,3,0.985336,0219,0.007874,0.03937,0.110236,0.385827,0.062992,0.031496,0.03937,0.062992,6,3,0.965986,0220,-0.023622,-0.03937,-0.070866,-0.299213,-0.015748,-0.023622,-0.023622,-0.047244,6,3,0.965986,0221,-0.007874,-0.015748,-0.023622,-0.015748,-0.070866,-0.047244,0.,0.125984,6,3,0.946636,0222,-0.007874,-0.015748,0.,0.062992,0.094488,0.007874,-0.023622,-0.007874,6,3,0.927286,0223,0.,0.,0.015748,0.023622,-0.086614,-0.023622,0.015748,-0.047244,6,3,0.927286,0224,-0.023622,-0.062992,-0.062992,-0.031496,0.015748,0.03937,0.,0.102362,6,3,0.927286,0225,0.,0.007874,-0.03937,-0.055118,-0.07874,-0.086614,0.,0.047244,6,3,0.907937,0226,0.007874,0.007874,0.,-0.03937,0.03937,0.007874,-0.03937,-0.015748,6,3,0.907937,0227,-0.031496,0.015748,0.007874,0.007874,0.015748,-0.055118,-0.015748,0.102362,6,3,0.907937,0228,0.03937,-0.015748,-0.031496,0.047244,-0.03937,0.03937,0.007874,0.102362,6,3,0.888587,0229,-0.03937,0.023622,0.023622,-0.023622,0.228346,0.03937,0.023622,-0.03937,6,3,0.869237,0230,-0.007874,-0.047244,-0.031496,0.086614,0.03937,-0.03937,-0.03937,0.070866,6,3,0.869237,0231,-0.015748,0.03937,0.062992,-0.031496,-0.141732,-0.055118,0.015748,0.133858,6,3,0.849887,0232,0.,0.,0.07874,0.11811,0.165354,0.055118,-0.007874,0.055118,6,3,0.849887,0233,-0.047244,-0.03937,-0.102362,-0.031496,-0.141732,0.062992,-0.007874,0.055118,6,3,0.830537,0234,0.023622,0.015748,-0.015748,-0.212598,-0.047244,-0.047244,-0.015748,0.062992,6,3,0.830537,0235,0.,0.015748,0.,-0.007874,-0.047244,0.023622,-0.03937,0.023622,6,3,0.830537,0236,-0.047244,-0.023622,0.023622,-0.055118,0.031496,0.015748,0.031496,-0.094488,6,3,0.830537,0237,-0.023622,-0.015748,0.023622,0.188976,0.047244,0.03937,0.047244,-0.015748,6,3,0.811187,0238,0.,-0.03937,-0.047244,-0.11811,0.181102,0.070866,0.015748,0.031496,6,3,0.811187,0239,0.023622,-0.055118,-0.11811,-0.055118,-0.204724,0.07874,0.062992,0.007874,6,3,0.791837,0240,0.070866,0.181102,0.102362,-0.015748,0.015748,-0.03937,-0.070866,-0.102362,6,3,0.791837,0241,-0.015748,-0.031496,0.055118,0.062992,0.125984,0.015748,-0.11811,-0.425197,6,3,0.772487,0242,-0.094488,-0.03937,-0.03937,-0.102362,-0.503937,0.,0.031496,-0.456693,6,3,0.772487,0243,0.055118,-0.047244,0.,-0.007874,0.354331,-0.03937,0.07874,-0.614173,6,3,0.772487,0244,-0.023622,-0.094488,-0.15748,-0.070866,-0.173228,0.007874,0.023622,-0.228346,6,3,0.772487,0245,0.031496,0.015748,0.023622,-0.133858,-0.149606,-0.070866,-0.055118,-0.417323,6,3,0.772487,0246,0.007874,0.062992,0.031496,0.015748,-0.086614,0.,0.031496,-0.543307,6,3,0.772487,0247,-0.031496,-0.031496,0.015748,0.,0.062992,0.023622,-0.102362,-0.322835,6,3,0.772487,0248,-0.031496,-0.03937,0.,-0.023622,-0.19685,-0.188976,0.007874,-0.543307,6,3,0.753137,0249,0.,0.,0.023622,0.,0.11811,0.,-0.03937,-0.03937,6,3,0.733787,0250,0.,0.031496,-0.023622,-0.055118,-0.125984,-0.070866,-0.007874,0.047244,6,3,0.733787,0251,-0.023622,-0.007874,0.023622,-0.03937,0.015748,0.102362,0.007874,-0.086614,6,3,0.733787,0252,0.007874,0.031496,0.03937,0.086614,0.055118,-0.031496,-0.062992,0.031496,6,3,0.733787,0253,-0.023622,0.,0.031496,0.110236,0.086614,-0.015748,0.047244,-0.023622,6,3,0.714437,0254,0.007874,-0.047244,-0.086614,-0.11811,-0.11811,-0.125984,-0.070866,-0.031496,6,3,0.714437,0255,-0.023622,-0.023622,-0.031496,-0.094488,-0.007874,-0.031496,-0.03937,0.03937,6,3,0.695087,0256,0.,-0.007874,0.015748,0.244094,0.11811,0.055118,0.023622,0.055118,6,3,0.695087,0257,0.015748,-0.03937,-0.070866,-0.204724,-0.055118,-0.094488,-0.007874,-0.031496,6,3,0.637037,0258,0.007874,0.062992,0.204724,0.228346,0.181102,0.07874,0.070866,-0.031496,6,3,0.637037,0259,0.007874,-0.023622,-0.102362,-0.141732,-0.228346,-0.03937,-0.015748,0.055118,6,3,0.617687,0260,-0.141732,-0.094488,-0.062992,-0.173228,0.149606,0.007874,-0.031496,-0.055118,6,3,0.617687,0261,0.062992,0.055118,0.133858,0.425197,-0.03937,-0.11811,0.007874,-0.015748,6,3,0.598337,0262,0.,-0.047244,-0.204724,-0.385827,-0.062992,0.047244,-0.015748,-0.007874,6,3,0.598337,0263,0.015748,0.03937,0.062992,0.03937,-0.070866,0.007874,-0.015748,-0.055118,6,3,0.598337,0264,-0.031496,-0.023622,-0.03937,-0.015748,-0.007874,-0.047244,-0.023622,-0.03937,6,3,0.598337,0265,0.,-0.031496,-0.047244,0.015748,-0.007874,0.141732,0.,0.,6,3,0.578987,0266,0.023622,0.023622,0.19685,0.23622,0.212598,0.055118,0.047244,0.,6,3,0.578987,0267,-0.031496,-0.015748,-0.086614,0.023622,0.102362,-0.062992,-0.055118,0.03937,6,3,0.559637,0268,0.055118,0.03937,0.062992,-0.070866,-0.102362,0.11811,0.031496,0.070866,6,3,0.559637,0269,-0.07874,-0.062992,-0.062992,-0.094488,0.007874,-0.015748,-0.047244,-0.15748,6,3,0.540287,0270,-0.062992,-0.03937,-0.086614,-0.11811,-0.133858,-0.149606,-0.047244,-0.07874,6,3,0.540287,0271,0.03937,0.015748,-0.007874,-0.023622,0.086614,0.133858,0.03937,0.015748,6,3,0.520937,0272,-0.03937,-0.047244,-0.094488,-0.220472,-0.291339,-0.212598,-0.047244,-0.023622,6,3,0.520937,0273,-0.023622,0.007874,0.070866,0.086614,0.102362,-0.055118,0.007874,0.19685,6,3,0.501587,0274,-0.007874,0.,-0.03937,0.070866,0.023622,0.070866,-0.015748,0.07874,6,3,0.501587,0275,-0.023622,0.015748,0.204724,0.409449,0.11811,-0.015748,-0.015748,0.,6,3,0.501587,0276,0.094488,0.047244,-0.015748,-0.023622,-0.086614,-0.110236,0.,0.055118,6,3,0.501587,0277,-0.023622,-0.023622,-0.094488,-0.212598,0.015748,0.181102,0.023622,0.102362,6,3,0.482237,0278,0.023622,-0.015748,0.015748,-0.070866,0.031496,-0.11811,-0.031496,-0.094488,6,3,0.482237,0279,-0.023622,-0.031496,-0.031496,0.023622,-0.086614,-0.047244,0.,0.007874,6,3,0.462887,0280,-0.03937,0.,0.007874,0.,0.070866,-0.023622,-0.007874,-0.015748,6,3,0.462887,0281,0.015748,-0.007874,0.023622,0.023622,0.023622,-0.007874,0.,-0.007874,6,3,0.443537,0282,-0.031496,-0.03937,-0.149606,-0.307087,0.,0.03937,-0.031496,-0.007874,6,3,0.443537,0283,0.023622,0.015748,0.070866,0.070866,-0.055118,-0.070866,0.,0.015748,6,3,0.424187,0284,-0.031496,0.,0.03937,0.102362,-0.094488,-0.086614,-0.023622,0.015748,6,3,0.424187,0285,0.015748,0.,-0.047244,-0.03937,-0.212598,0.110236,0.031496,-0.070866,6,3,0.404837,0286,-0.047244,-0.015748,-0.03937,0.07874,0.11811,0.,-0.023622,0.,6,3,0.404837,0287,-0.11811,-0.094488,-0.188976,-0.456693,-0.228346,-0.11811,-0.094488,-0.03937,6,3,0.404837,0288,0.055118,0.047244,0.07874,0.15748,0.220472,0.07874,0.015748,0.094488,6,3,0.404837,0289,-0.007874,0.015748,-0.015748,0.062992,0.031496,0.03937,0.007874,0.03937,6,3,0.366138,0290,0.047244,0.047244,0.165354,0.511811,-0.03937,-0.023622,0.007874,-0.07874,6,3,0.366138,0291,-0.062992,-0.031496,-0.03937,-0.07874,0.,0.055118,0.015748,-0.070866,6,3,0.366138,0292,0.023622,-0.007874,-0.023622,-0.11811,-0.03937,-0.070866,-0.023622,0.03937,6,3,0.366138,0293,0.031496,-0.007874,-0.015748,0.031496,-0.03937,-0.015748,-0.023622,0.086614,6,3,0.346788,0294,0.031496,0.007874,0.,-0.047244,0.015748,0.015748,0.031496,0.125984,6,3,0.327438,0295,-0.023622,-0.023622,-0.015748,0.,-0.141732,-0.125984,0.023622,-0.007874,6,3,0.327438,0296,-0.023622,-0.015748,0.,0.031496,0.07874,-0.141732,-0.094488,-0.062992,6,3,0.327438,0297,0.015748,-0.007874,0.03937,0.055118,-0.007874,-0.094488,-0.031496,0.062992,6,3,0.308088,0298,-0.070866,-0.047244,-0.055118,-0.055118,0.023622,0.015748,0.03937,0.,6,3,0.308088,0299,0.007874,-0.007874,0.007874,0.070866,-0.07874,0.165354,-0.007874,-0.031496,6,3,0.308088,0300,-0.015748,0.,-0.03937,-0.007874,0.125984,0.259843,0.094488,0.047244,6,3,0.288738,0301,-0.047244,0.,0.,-0.094488,-0.188976,-0.102362,-0.07874,0.070866,6,3,0.288738,0302,0.031496,0.007874,0.055118,0.23622,0.425197,-0.015748,-0.015748,-0.007874,6,3,0.288738,0303,0.015748,-0.007874,-0.023622,-0.165354,-0.165354,0.023622,0.007874,0.149606,6,3,0.250038,0304,-0.03937,-0.03937,-0.149606,-0.393701,-0.283465,-0.03937,-0.023622,0.086614,6,3,0.250038,0305,0.,0.015748,0.031496,0.181102,0.322835,-0.094488,-0.023622,0.125984,6,3,0.230688,0306,0.015748,0.03937,0.110236,-0.007874,-0.433071,0.125984,0.031496,0.133858,6,3,0.230688,0307,0.015748,0.031496,0.094488,0.370079,0.488189,-0.031496,-0.007874,0.062992,6,3,0.230688,0308,0.,0.015748,0.031496,0.23622,0.251969,0.212598,0.055118,0.,6,3,0.230688,0309,0.015748,-0.03937,-0.055118,-0.370079,-0.377953,-0.07874,0.023622,0.015748,6,3,0.230688,0310,-0.023622,0.031496,0.047244,0.094488,0.19685,0.015748,-0.023622,0.,6,3,0.230688,0311,-0.007874,0.,-0.023622,-0.125984,-0.07874,-0.07874,-0.062992,0.,6,3,0.230688,0312,0.015748,0.007874,0.023622,0.062992,0.102362,-0.015748,0.007874,0.07874,6,3,0.230688,0313,0.031496,-0.015748,-0.070866,-0.188976,-0.055118,-0.047244,0.007874,0.031496,6,3,0.211338,0314,0.,0.03937,0.102362,0.322835,0.110236,0.,0.,0.102362,6,3,0.211338,0315,-0.031496,-0.015748,-0.015748,-0.007874,-0.15748,-0.125984,-0.07874,-0.102362,6,3,0.211338,0316,-0.047244,-0.07874,-0.062992,0.023622,0.007874,0.086614,0.055118,0.,6,3,0.211338,0317,-0.007874,0.007874,-0.07874,-0.133858,-0.070866,0.03937,0.03937,0.07874,6,3,0.172638,0318,0.,-0.015748,0.007874,-0.070866,0.204724,0.062992,-0.03937,-0.023622,6,3,0.172638,0319,0.055118,0.03937,0.007874,-0.062992,-0.149606,0.110236,0.031496,0.,6,3,0.172638,0320,-0.007874,-0.03937,-0.094488,-0.102362,0.094488,-0.102362,-0.007874,0.11811,6,3,0.172638,0321,0.,-0.007874,-0.007874,-0.031496,-0.102362,-0.015748,-0.007874,-0.070866,6,3,0.133938,0322,-0.062992,-0.03937,0.015748,0.094488,-0.440945,-0.086614,0.015748,0.031496,6,3,0.133938,0323,0.023622,0.007874,-0.031496,-0.173228,0.314961,0.125984,0.03937,-0.055118,6,3,0.114588,0324,0.023622,0.015748,0.015748,-0.110236,-0.149606,-0.07874,-0.110236,0.055118,6,3,0.114588,0325,0.007874,-0.015748,-0.031496,0.125984,0.244094,0.070866,-0.03937,-0.015748,6,3,0.095238,0326,-0.031496,-0.023622,-0.031496,0.,0.015748,-0.133858,0.,-0.03937,6,3,0.095238,0327,0.007874,-0.03937,-0.062992,-0.007874,0.125984,-0.070866,-0.047244,-0.07874,6,3,0.095238,0328,-0.047244,-0.015748,-0.007874,-0.19685,-0.80315,-0.03937,0.031496,-0.102362,6,3,0.095238,0329,-0.062992,-0.062992,-0.141732,-0.15748,0.370079,-0.086614,-0.055118,0.015748,6,3,0.037188,0330,0.015748,-0.007874,-0.086614,-0.307087,-0.511811,-0.070866,-0.086614,-0.031496,6,3,0.037188,0331,-0.015748,-0.007874,0.070866,0.15748,0.275591,0.149606,0.062992,-0.110236,6,3,0.017838,0332,-0.023622,-0.023622,-0.07874,-0.070866,0.393701,-0.031496,-0.015748,-0.440945,6,3,0.017838,0333,0.,0.03937,0.031496,-0.007874,-0.188976,-0.031496,0.023622,-0.409449,6,2,0.998488,0334,-0.03937,-0.031496,-0.062992,0.007874,0.07874,-0.007874,-0.023622,-0.212598,6,2,0.998488,0335,0.062992,-0.031496,-0.125984,-0.251969,0.023622,0.03937,0.031496,0.023622,6,2,0.998488,0336,0.047244,0.062992,0.188976,0.299213,0.07874,0.070866,0.047244,0.102362,6,2,0.998488,0337,-0.03937,0.055118,0.283465,0.464567,0.062992,0.047244,0.094488,0.212598,6,2,0.979138,0338,-0.015748,-0.055118,-0.220472,-0.511811,-0.188976,-0.062992,-0.015748,0.125984,6,2,0.979138,0339,0.015748,-0.015748,-0.031496,-0.055118,-0.007874,-0.007874,-0.03937,0.23622,6,2,0.959788,0340,-0.031496,-0.015748,0.031496,0.212598,0.110236,0.007874,-0.007874,0.165354,6,2,0.959788,0341,-0.031496,-0.023622,-0.062992,-0.19685,-0.259843,-0.141732,-0.086614,0.110236,6,2,0.959788,0342,-0.055118,-0.031496,-0.047244,-0.062992,0.204724,0.03937,-0.031496,0.15748,6,2,0.959788,0343,-0.023622,-0.015748,-0.031496,0.023622,0.181102,0.070866,0.023622,0.181102,6,2,0.959788,0344,-0.023622,-0.015748,-0.031496,-0.149606,-0.480315,-0.062992,-0.062992,0.031496,6,2,0.940438,0345,0.023622,0.03937,0.007874,0.047244,0.070866,0.055118,0.03937,0.070866,6,2,0.921088,0346,-0.070866,-0.007874,-0.023622,-0.047244,-0.165354,-0.11811,-0.023622,0.102362,6,2,0.921088,0347,0.031496,-0.031496,-0.070866,-0.007874,0.086614,-0.070866,-0.031496,0.125984,6,2,0.921088,0348,0.03937,-0.015748,-0.031496,-0.125984,0.023622,0.047244,-0.007874,0.204724,6,2,0.921088,0349,-0.023622,0.,0.007874,0.015748,0.007874,-0.047244,-0.023622,0.23622,6,2,0.901738,0350,-0.055118,-0.031496,-0.03937,0.03937,0.15748,-0.007874,-0.070866,0.220472,6,2,0.901738,0351,0.055118,0.070866,0.283465,0.433071,-0.133858,0.023622,0.102362,0.283465,6,2,0.882389,0352,0.031496,0.015748,0.007874,0.031496,0.11811,-0.015748,0.070866,0.307087,6,2,0.882389,0353,-0.070866,-0.086614,-0.125984,-0.440945,-0.094488,0.023622,-0.094488,-0.11811,6,2,0.863039,0354,-0.094488,-0.015748,-0.007874,0.307087,0.086614,0.173228,0.023622,-0.062992,6,2,0.863039,0355,0.062992,-0.015748,0.,0.181102,0.307087,-0.031496,-0.086614,-0.031496,6,2,0.863039,0356,0.,-0.015748,-0.031496,-0.212598,-0.165354,-0.173228,-0.023622,-0.031496,6,2,0.863039,0357,-0.094488,-0.031496,0.,0.,-0.102362,0.15748,0.102362,-0.023622,6,2,0.843689,0358,-0.015748,0.,-0.015748,-0.125984,-0.212598,-0.094488,-0.07874,-0.165354,6,2,0.843689,0359,0.125984,0.015748,-0.031496,0.110236,0.259843,-0.228346,0.,0.102362,6,2,0.843689,0360,0.125984,0.062992,0.062992,0.,-0.267717,0.07874,0.047244,0.086614,6,2,0.843689,0361,-0.133858,-0.015748,-0.03937,0.102362,0.354331,0.055118,0.,0.055118,6,2,0.766289,0362,-0.015748,0.007874,0.,0.007874,-0.047244,0.015748,-0.007874,0.007874,6,2,0.766289,0363,0.047244,0.015748,-0.015748,-0.133858,-0.307087,-0.047244,-0.03937,-0.062992,6,2,0.766289,0364,0.102362,0.007874,0.023622,0.173228,0.472441,0.086614,0.031496,-0.015748,6,2,0.766289,0365,-0.031496,-0.031496,-0.07874,-0.149606,-0.070866,-0.07874,-0.03937,0.062992,6,2,0.727589,0366,-0.110236,0.,0.102362,0.094488,-0.811024,0.,0.,-0.055118,6,2,0.727589,0367,-0.102362,-0.03937,0.015748,-0.031496,0.377953,-0.007874,0.015748,0.03937,6,2,0.727589,0368,0.,-0.03937,0.,0.149606,-0.070866,0.07874,-0.007874,0.125984,6,2,0.727589,0369,-0.055118,0.015748,0.070866,0.377953,1.,0.102362,-0.007874,-0.031496,6,2,0.708239,0370,-0.133858,0.,-0.055118,-0.173228,-0.566929,-0.102362,-0.03937,0.055118,6,2,0.708239,0371,0.07874,-0.007874,-0.023622,-0.102362,-0.23622,0.007874,0.015748,0.023622,6,2,0.708239,0372,0.,-0.047244,-0.094488,-0.307087,-0.212598,-0.031496,0.023622,0.228346,6,2,0.688889,0373,0.102362,0.,0.007874,-0.015748,-0.385827,0.023622,0.007874,-0.031496,6,2,0.688889,0374,0.165354,-0.007874,-0.023622,0.007874,0.755906,-0.031496,0.023622,0.055118,6,2,0.688889,0375,-0.173228,-0.03937,-0.047244,0.070866,-0.133858,-0.11811,-0.070866,0.070866,6,2,0.688889,0376,-0.055118,0.023622,0.023622,0.102362,-0.291339,-0.007874,-0.062992,-0.070866,6,2,0.688889,0377,-0.047244,-0.094488,-0.07874,-0.070866,-0.220472,-0.094488,-0.094488,0.322835,6,2,0.688889,0378,-0.070866,0.023622,0.125984,0.055118,0.165354,0.007874,-0.007874,0.19685,6,2,0.688889,0379,0.094488,0.07874,0.,-0.220472,0.007874,0.149606,0.110236,0.291339,6,2,0.688889,0380,-0.086614,-0.094488,-0.181102,-0.23622,0.062992,-0.125984,-0.015748,0.401575,6,2,0.688889,0381,0.094488,0.070866,0.070866,0.110236,0.165354,0.015748,0.007874,0.299213,6,2,0.688889,0382,0.086614,-0.023622,-0.007874,-0.023622,0.055118,0.015748,0.015748,0.220472,6,2,0.688889,0383,-0.141732,-0.094488,-0.023622,0.125984,0.015748,-0.031496,-0.047244,0.181102,6,2,0.688889,0384,0.031496,0.,-0.007874,-0.11811,-0.007874,-0.023622,-0.03937,-0.149606,6,2,0.669539,0385,-0.031496,0.007874,-0.015748,0.055118,0.275591,0.,-0.023622,-0.267717,6,2,0.650189,0386,-0.023622,-0.03937,-0.047244,-0.181102,-0.267717,-0.094488,-0.07874,-0.188976,6,2,0.650189,0387,0.094488,0.03937,0.03937,-0.007874,0.125984,0.110236,0.055118,-0.283465,6,2,0.650189,0388,-0.031496,-0.007874,-0.023622,0.07874,0.031496,-0.007874,0.023622,-0.244094,6,2,0.650189,0389,0.07874,0.015748,0.062992,0.094488,-0.307087,0.055118,0.047244,0.007874,6,2,0.630839,0390,-0.188976,-0.023622,-0.031496,-0.086614,0.496063,-0.03937,-0.031496,-0.031496,6,2,0.630839,0391,0.070866,0.094488,0.03937,0.007874,-0.11811,-0.149606,-0.055118,-0.055118,6,2,0.630839,0392,-0.007874,-0.007874,0.110236,0.07874,-0.566929,0.070866,-0.031496,-0.007874,6,2,0.630839,0393,0.07874,0.,-0.047244,0.007874,-0.086614,-0.055118,0.007874,0.070866,6,2,0.630839,0394,0.015748,-0.023622,-0.015748,0.228346,0.409449,0.015748,0.110236,0.149606,6,2,0.630839,0395,-0.125984,-0.102362,-0.031496,0.031496,0.110236,0.094488,-0.070866,0.007874,6,2,0.630839,0396,0.031496,0.007874,-0.031496,-0.204724,0.393701,0.03937,-0.047244,0.047244,6,2,0.630839,0397,0.03937,-0.03937,-0.031496,-0.070866,-0.677165,-0.173228,-0.023622,-0.03937,6,2,0.611489,0398,-0.086614,0.031496,0.031496,0.070866,0.480315,0.047244,0.023622,-0.023622,6,2,0.611489,0399,-0.259843,-0.031496,-0.031496,-0.149606,-0.574803,-0.03937,-0.070866,-0.149606,6,2,0.611489,0400,0.007874,-0.047244,0.031496,0.149606,0.338583,0.015748,0.,-0.031496,6,2,0.611489,0401,0.094488,0.070866,-0.015748,-0.181102,-0.055118,-0.023622,0.015748,0.047244,6,2,0.611489,0402,0.354331,-0.007874,0.007874,-0.094488,0.181102,0.015748,0.070866,0.125984,6,2,0.592139,0403,-0.19685,-0.03937,-0.03937,0.149606,-0.062992,-0.015748,0.015748,0.086614,6,2,0.592139,0404,-0.102362,0.094488,-0.055118,-0.133858,-0.700787,-0.07874,-0.102362,-0.173228,6,2,0.592139,0405,0.062992,-0.015748,0.070866,0.165354,0.992126,0.141732,0.03937,-0.007874,6,2,0.592139,0406,0.070866,-0.03937,-0.03937,-0.047244,-0.826772,-0.070866,-0.03937,0.03937,6,2,0.592139,0407,0.007874,-0.03937,-0.03937,-0.141732,0.314961,0.,0.,0.015748,6,2,0.592139,0408,0.,-0.031496,-0.015748,0.094488,0.086614,0.007874,0.015748,0.07874,6,2,0.592139,0409,0.007874,0.,-0.023622,-0.062992,-0.346457,-0.055118,-0.023622,-0.023622,6,2,0.572789,0410,0.,0.031496,0.070866,0.299213,0.165354,0.11811,0.023622,-0.03937,6,2,0.572789,0411,-0.062992,-0.03937,-0.062992,-0.173228,0.283465,-0.015748,-0.007874,-0.070866,6,2,0.572789,0412,-0.11811,-0.070866,-0.094488,-0.188976,-0.346457,-0.141732,-0.102362,0.094488,6,2,0.572789,0413,-0.102362,-0.047244,0.007874,-0.055118,0.228346,0.031496,-0.007874,-0.11811,6,2,0.553439,0414,0.07874,0.062992,0.07874,0.031496,0.181102,-0.03937,0.007874,-0.015748,6,2,0.553439,0415,-0.031496,-0.031496,0.031496,0.212598,-0.204724,-0.125984,-0.047244,0.023622,6,2,0.553439,0416,0.023622,0.047244,0.047244,0.094488,0.173228,0.15748,0.173228,-0.07874,6,2,0.553439,0417,0.031496,0.007874,-0.007874,-0.047244,-0.133858,-0.173228,-0.11811,-0.062992,6,2,0.534089,0418,-0.094488,-0.047244,-0.07874,0.,0.094488,0.055118,-0.062992,-0.102362,6,2,0.514739,0419,-0.047244,-0.03937,-0.07874,-0.23622,0.23622,0.015748,-0.015748,0.023622,6,2,0.514739,0420,0.094488,0.031496,0.031496,0.047244,0.346457,0.,0.070866,0.031496,6,2,0.514739,0421,0.094488,-0.007874,0.007874,0.102362,-0.80315,0.031496,0.,0.07874,6,2,0.456689,0422,-0.03937,-0.047244,-0.07874,-0.141732,0.15748,-0.03937,-0.015748,-0.062992,6,2,0.456689,0423,0.11811,0.07874,-0.007874,0.094488,-0.283465,0.031496,0.,0.,6,2,0.456689,0424,-0.094488,-0.047244,0.102362,0.181102,0.740157,0.149606,0.086614,-0.031496,6,2,0.456689,0425,0.023622,0.015748,-0.03937,-0.133858,-0.149606,0.,-0.047244,0.023622,6,2,0.437339,0426,-0.047244,0.007874,-0.007874,-0.03937,-0.433071,-0.062992,-0.047244,-0.015748,6,2,0.437339,0427,0.11811,0.031496,0.055118,0.086614,-0.070866,-0.094488,-0.015748,-0.047244,6,2,0.437339,0428,-0.015748,0.031496,-0.031496,0.015748,0.503937,0.070866,0.007874,-0.062992,6,2,0.417989,0429,-0.125984,-0.047244,-0.047244,-0.070866,0.173228,0.007874,0.031496,-0.173228,6,2,0.379289,0430,0.070866,0.007874,-0.015748,0.,0.086614,0.007874,-0.023622,0.07874,6,2,0.379289,0431,-0.055118,-0.031496,0.086614,-0.086614,-0.259843,0.070866,0.03937,-0.062992,6,2,0.379289,0432,-0.188976,-0.055118,-0.055118,-0.023622,-0.338583,-0.133858,-0.110236,-0.055118,6,2,0.379289,0433,-0.133858,-0.007874,-0.03937,0.181102,0.330709,-0.047244,-0.070866,-0.15748,6,2,0.34059,0434,0.086614,0.031496,0.,-0.165354,-0.346457,0.094488,0.031496,0.15748,6,2,0.34059,0435,0.102362,0.055118,0.023622,0.015748,-0.677165,-0.133858,0.,0.031496,6,2,0.34059,0436,0.299213,0.,0.047244,0.07874,0.283465,-0.055118,-0.03937,0.070866,6,2,0.34059,0437,-0.110236,0.023622,-0.07874,-0.19685,-0.181102,-0.007874,-0.03937,0.007874,6,2,0.30189,0438,-0.275591,-0.212598,-0.023622,0.031496,0.055118,0.023622,-0.03937,-0.094488,6,2,0.30189,0439,0.181102,0.015748,-0.023622,0.055118,-0.409449,0.181102,0.125984,0.15748,6,2,0.28254,0440,0.11811,0.094488,0.055118,0.07874,0.362205,0.102362,0.062992,0.244094,6,2,0.28254,0441,-0.086614,-0.070866,-0.133858,-0.220472,-1.007874,-0.314961,-0.181102,-0.094488,6,2,0.24384,0442,0.062992,0.062992,-0.086614,0.031496,0.062992,0.173228,0.086614,0.133858,6,2,0.24384,0443,-0.228346,0.007874,0.133858,0.062992,-0.795276,-0.094488,-0.015748,0.031496,6,2,0.24384,0444,0.15748,-0.015748,0.,0.047244,0.685039,0.19685,0.031496,-0.023622,6,2,0.24384,0445,-0.070866,0.031496,0.007874,-0.094488,0.070866,-0.23622,-0.07874,0.007874,6,2,0.24384,0446,0.125984,0.03937,0.125984,0.448819,0.220472,-0.094488,0.023622,0.070866,6,2,0.24384,0447,0.133858,0.007874,-0.149606,-0.362205,0.913386,-0.062992,0.125984,0.133858,6,2,0.24384,0448,-0.251969,-0.070866,-0.062992,-0.244094,-0.929134,-0.346457,-0.062992,0.03937,6,2,0.24384,0449,-0.055118,0.055118,0.,0.425197,1.,0.173228,-0.070866,-0.125984,6,2,0.22449,0450,0.023622,0.031496,-0.062992,-0.259843,-0.472441,-0.204724,-0.11811,-0.031496,6,2,0.22449,0451,-0.031496,-0.031496,-0.015748,0.03937,0.661417,0.212598,0.07874,0.047244,6,2,0.22449,0452,0.440945,0.094488,0.047244,0.03937,-1.007874,-0.070866,0.03937,0.23622,6,2,0.22449,0453,0.181102,-0.228346,-0.086614,-0.070866,0.913386,0.629921,0.299213,0.299213,6,2,0.18579,0454,-0.795276,-0.11811,-0.133858,-0.23622,-1.007874,-0.622047,-0.393701,-0.322835,6,2,0.18579,0455,-0.283465,-0.055118,-0.133858,0.244094,0.952756,0.102362,-0.047244,-0.03937,6,2,0.18579,0456,0.188976,0.015748,0.03937,-0.047244,0.299213,0.015748,0.07874,0.181102,6,2,0.18579,0457,-0.125984,-0.015748,0.07874,0.204724,-0.622047,-0.094488,-0.133858,-0.055118,6,2,0.14709,0458,-0.062992,-0.007874,0.047244,-0.141732,0.669291,0.055118,0.007874,0.055118,6,2,0.14709,0459,0.425197,0.094488,0.15748,-0.094488,-0.519685,0.023622,0.220472,0.370079,6,2,0.14709,0460,0.370079,0.015748,-0.07874,-0.03937,0.062992,0.,0.03937,0.149606,6,2,0.14709,0461,-0.377953,0.,-0.125984,-0.259843,0.700787,0.15748,0.03937,-0.07874,6,2,0.10839,0462,0.204724,-0.055118,0.141732,-0.062992,-0.732283,-0.165354,-0.188976,0.070866,6,2,0.10839,0463,-0.070866,-0.062992,-0.110236,-0.086614,-0.141732,-0.03937,0.133858,0.015748,6,2,0.10839,0464,0.007874,0.047244,0.133858,0.228346,-0.708661,-0.188976,-0.062992,-0.03937,6,2,0.08904,0465,-0.133858,0.03937,0.03937,-0.188976,0.614173,0.15748,0.031496,-0.15748,6,2,0.06969,0466,-0.102362,-0.094488,-0.110236,0.181102,0.527559,-0.055118,-0.141732,-0.086614,6,2,0.06969,0467,-0.401575,-0.086614,-0.102362,-0.275591,-0.708661,0.047244,-0.094488,-0.125984,6,2,0.06969,0468,0.125984,0.03937,0.023622,0.007874,0.204724,0.007874,0.070866,0.110236,6,2,0.06969,0469,0.07874,0.149606,0.275591,0.283465,-0.204724,-0.204724,0.188976,0.133858,6,2,0.03099,0470,0.055118,0.,-0.094488,-0.370079,-0.322835,0.228346,-0.275591,-0.511811,6,2,0.03099,0471,-0.385827,-0.094488,0.07874,0.448819,0.307087,0.086614,-0.181102,-0.322835,6,2,0.03099,0472,-0.322835,-0.181102,-0.070866,-0.188976,-0.559055,0.03937,0.023622,-0.291339,6,2,0.03099,0473,0.23622,0.07874,-0.007874,0.181102,-0.015748,-0.007874,0.070866,0.330709,6,1,0.99229,0474,0.566929,0.173228,0.070866,0.015748,0.519685,0.370079,0.598425,0.535433,6,1,0.99229,0475,0.346457,0.094488,-0.007874,-0.141732,-0.519685,-0.141732,-0.275591,0.165354,6,1,0.97294,0476,-0.472441,0.,0.031496,-0.007874,0.307087,-0.102362,-0.188976,-0.480315,6,1,0.97294,0477,0.149606,-0.212598,-0.188976,-0.188976,-0.448819,-0.141732,-0.07874,0.03937,6,1,0.93424,0478,-0.086614,-0.03937,0.07874,-0.086614,-0.141732,0.023622,0.102362,0.047244,6,1,0.93424,0479,-0.031496,-0.031496,-0.015748,0.181102,0.771654,0.,-0.023622,-0.070866,6,1,0.93424,0480,-0.023622,0.070866,0.015748,-0.070866,-0.259843,0.007874,0.102362,0.047244,6,1,0.93424,0481,0.031496,-0.03937,0.07874,0.322835,-0.228346,-0.086614,-0.165354,0.07874,6,1,0.91489,0482,-0.299213,-0.007874,-0.023622,0.181102,0.653543,0.11811,0.031496,-0.102362,6,1,0.91489,0483,0.07874,-0.031496,0.007874,0.070866,-0.188976,-0.149606,-0.047244,-0.047244,6,1,0.89554,0484,-0.023622,-0.015748,0.007874,0.023622,0.464567,0.212598,0.,0.015748,6,1,0.89554,0485,-0.181102,0.015748,0.,-0.23622,-0.385827,0.11811,0.086614,0.055118,6,1,0.856841,0486,0.015748,-0.125984,-0.141732,-0.19685,0.,-0.023622,-0.165354,-0.173228,6,1,0.856841,0487,-0.204724,0.007874,0.07874,-0.03937,0.244094,0.07874,0.015748,0.023622,6,1,0.837491,0488,-0.094488,0.015748,-0.03937,-0.11811,0.346457,-0.188976,0.,-0.007874,6,1,0.837491,0489,0.283465,0.03937,-0.03937,-0.015748,-0.291339,-0.055118,-0.07874,0.149606,6,1,0.837491,0490,-0.086614,0.015748,0.11811,0.188976,0.228346,-0.07874,0.102362,-0.173228,6,1,0.837491,0491,0.086614,0.,-0.11811,-0.220472,0.322835,0.086614,-0.03937,0.07874,6,1,0.818141,0492,-0.181102,-0.055118,-0.015748,0.007874,-0.275591,-0.15748,-0.11811,0.007874,6,1,0.818141,0493,-0.181102,0.015748,0.015748,-0.141732,0.244094,-0.094488,-0.031496,-0.19685,6,1,0.779441,0494,0.15748,0.110236,0.094488,0.551181,0.559055,0.251969,0.393701,0.377953,6,1,0.779441,0495,0.330709,0.,-0.110236,-0.330709,-0.527559,-0.141732,-0.007874,0.,6,1,0.779441,0496,-0.181102,-0.031496,-0.023622,-0.055118,-0.03937,0.125984,-0.11811,-0.047244,6,1,0.779441,0497,-0.181102,-0.062992,0.007874,-0.047244,-0.724409,-0.047244,-0.055118,-0.181102,6,1,0.740741,0498,0.251969,0.,-0.070866,-0.110236,-0.464567,-0.299213,-0.094488,0.110236,6,1,0.740741,0499,-0.023622,-0.023622,-0.007874,0.031496,-0.330709,0.023622,-0.062992,-0.007874,6,1,0.721391,0500,0.015748,0.07874,0.094488,0.086614,0.307087,-0.070866,-0.015748,-0.11811,6,1,0.721391,0501,0.03937,-0.047244,-0.125984,-0.220472,-0.141732,-0.007874,-0.007874,-0.047244,6,1,0.702041,0502,-0.110236,-0.062992,-0.015748,0.070866,0.031496,-0.070866,-0.086614,-0.055118,6,1,0.682691,0503,-0.19685,-0.062992,-0.047244,-0.023622,0.,-0.165354,-0.015748,-0.11811,6,1,0.682691,0504,0.149606,-0.031496,-0.110236,-0.110236,-0.110236,-0.007874,0.031496,0.173228,6,1,0.682691,0505,-0.283465,-0.015748,0.031496,0.314961,-0.055118,-0.125984,-0.062992,-0.173228,6,1,0.643991,0506,0.015748,0.023622,-0.086614,-0.181102,0.03937,0.133858,-0.031496,0.133858,6,1,0.643991,0507,0.212598,0.,0.023622,-0.15748,0.401575,0.133858,0.133858,0.133858,6,1,0.643991,0508,0.094488,-0.070866,-0.086614,0.102362,-0.417323,0.110236,0.055118,0.149606,6,1,0.643991,0509,0.149606,0.15748,0.23622,0.110236,0.283465,0.015748,0.086614,0.055118,6,1,0.605291,0510,-0.070866,-0.102362,-0.094488,-0.283465,-0.11811,-0.110236,-0.070866,-0.055118,6,1,0.605291,0511,-0.393701,-0.023622,0.023622,0.307087,-0.165354,-0.102362,-0.102362,-0.11811,6,1,0.605291,0512,-0.047244,-0.047244,0.03937,0.19685,0.275591,0.,-0.023622,-0.062992,6,1,0.605291,0513,0.015748,0.023622,-0.023622,-0.338583,-0.133858,0.015748,-0.165354,0.086614,6,1,0.566591,0514,0.598425,0.094488,0.031496,0.188976,0.251969,0.102362,0.204724,0.23622,6,1,0.566591,0515,0.165354,0.102362,0.031496,-0.03937,-0.551181,-0.047244,-0.062992,0.062992,6,1,0.566591,0516,-0.511811,-0.125984,-0.03937,0.212598,0.165354,0.086614,-0.03937,-0.314961,6,1,0.566591,0517,0.015748,-0.031496,-0.102362,-0.251969,-0.173228,-0.11811,-0.015748,0.19685,6,1,0.527891,0518,0.023622,-0.015748,0.023622,0.086614,0.433071,0.19685,0.086614,0.110236,6,1,0.527891,0519,-0.062992,-0.007874,-0.023622,0.03937,-0.23622,-0.212598,-0.228346,-0.070866,6,1,0.527891,0520,-0.322835,-0.07874,0.031496,-0.062992,-0.062992,-0.125984,-0.007874,-0.047244,6,1,0.527891,0521,0.023622,0.015748,0.031496,0.15748,0.598425,0.259843,0.055118,0.070866,6,1,0.489191,0522,0.141732,0.03937,-0.094488,-0.307087,-0.984252,-0.165354,-0.015748,0.023622,6,1,0.489191,0523,0.094488,0.047244,0.094488,0.094488,0.976378,0.377953,0.377953,0.314961,6,1,0.489191,0524,-0.007874,0.023622,-0.070866,-0.07874,-0.559055,-0.110236,-0.23622,-0.19685,6,1,0.489191,0525,0.149606,-0.070866,-0.031496,-0.133858,0.23622,0.11811,0.102362,0.047244,6,1,0.450491,0526,-0.149606,-0.031496,-0.023622,-0.03937,-0.220472,-0.094488,0.023622,0.11811,6,1,0.450491,0527,-0.19685,-0.007874,0.055118,0.165354,-0.070866,-0.047244,-0.055118,-0.125984,6,1,0.431141,0528,0.299213,0.086614,-0.015748,-0.094488,0.251969,-0.007874,0.03937,0.417323,6,1,0.431141,0529,0.283465,-0.015748,0.047244,0.23622,0.15748,0.031496,0.110236,0.110236,6,1,0.411791,0530,-0.110236,-0.007874,-0.062992,0.086614,0.212598,0.181102,-0.141732,-0.110236,6,1,0.411791,0531,-0.055118,-0.062992,-0.023622,-0.173228,-0.700787,-0.338583,-0.094488,-0.062992,6,1,0.399698,0532,-0.094488,0.007874,0.,0.023622,0.503937,0.07874,0.055118,0.133858,6,1,0.392441,0533,-0.07874,0.023622,-0.007874,-0.19685,-0.212598,-0.070866,0.110236,0.007874,6,1,0.373091,0534,-0.031496,-0.086614,-0.094488,-0.055118,0.062992,-0.070866,-0.275591,-0.070866,6,1,0.373091,0535,-0.212598,-0.015748,-0.055118,-0.15748,0.031496,-0.007874,-0.125984,-0.141732,6,1,0.373091,0536,0.322835,0.047244,0.047244,0.173228,0.267717,0.110236,0.149606,0.188976,6,1,0.353741,0537,0.456693,0.023622,-0.047244,0.188976,0.590551,0.047244,-0.125984,0.023622,6,1,0.315042,0538,-0.338583,0.03937,0.110236,-0.393701,-0.677165,-0.055118,0.141732,0.11811,6,1,0.315042,0539,0.370079,0.015748,-0.062992,-0.031496,0.188976,0.007874,0.062992,-0.070866,6,1,0.315042,0540,-0.244094,-0.023622,0.03937,0.322835,-0.149606,-0.204724,-0.110236,0.110236,6,1,0.315042,0541,-0.047244,0.,0.086614,0.212598,0.03937,0.03937,0.,-0.220472,6,1,0.256992,0542,-0.070866,-0.015748,0.062992,0.259843,0.771654,0.110236,0.110236,-0.03937,6,1,0.256992,0543,-0.047244,-0.047244,-0.149606,-0.425197,-0.23622,0.165354,0.03937,-0.047244,6,1,0.256992,0544,-0.015748,0.007874,0.015748,0.031496,0.03937,-0.086614,-0.007874,-0.031496,6,1,0.237642,0545,0.03937,0.023622,-0.007874,-0.102362,-0.787402,-0.03937,-0.11811,-0.055118,6,1,0.218292,0546,-0.03937,-0.015748,-0.062992,0.070866,0.503937,0.,-0.047244,-0.007874,6,1,0.218292,0547,0.062992,0.03937,0.015748,0.007874,-0.480315,-0.070866,0.031496,0.23622,6,1,0.218292,0548,0.661417,0.03937,0.047244,0.,0.023622,0.188976,0.007874,0.03937,6,1,0.218292,0549,-0.527559,-0.102362,-0.047244,0.031496,-0.401575,-0.259843,-0.102362,-0.149606,6,1,0.218292,0550,-0.23622,-0.070866,-0.102362,-0.19685,-0.606299,-0.070866,0.102362,-0.015748,6,1,0.218292,0551,-0.047244,0.062992,-0.086614,-0.149606,0.472441,0.062992,-0.102362,-0.220472,6,1,0.179592,0552,-0.338583,-0.173228,0.015748,0.047244,0.527559,0.07874,-0.102362,-0.110236,6,1,0.179592,0553,0.031496,-0.062992,-0.047244,0.031496,-0.330709,-0.283465,-0.055118,-0.094488,6,1,0.160242,0554,-0.102362,0.062992,0.149606,0.527559,0.354331,0.15748,0.133858,0.141732,6,1,0.160242,0555,0.464567,0.149606,0.181102,0.165354,-0.15748,0.110236,0.362205,0.700787,6,1,0.140892,0556,0.338583,-0.15748,-0.409449,-0.913386,-0.220472,-0.086614,-0.228346,-0.204724,6,1,0.140892,0557,-0.472441,0.,0.031496,0.015748,-0.15748,-0.03937,-0.173228,-0.165354,6,1,0.121542,0558,0.141732,0.015748,0.110236,0.283465,0.519685,0.11811,0.15748,0.133858,6,1,0.121542,0559,0.125984,0.15748,0.370079,0.417323,-0.165354,0.047244,0.023622,0.110236,6,1,0.121542,0560,0.149606,-0.03937,-0.070866,0.062992,0.165354,-0.03937,-0.07874,0.094488,6,1,0.121542,0561,-0.165354,-0.07874,-0.11811,-0.055118,0.094488,-0.023622,0.,-0.188976,6,1,0.102192,0562,-0.047244,0.094488,0.047244,0.007874,-0.173228,-0.015748,0.086614,-0.015748,6,1,0.102192,0563,0.07874,0.015748,0.023622,-0.015748,0.141732,0.023622,0.055118,0.110236,6,1,0.082842,0564,0.031496,-0.110236,0.047244,0.204724,0.015748,0.07874,0.070866,-0.188976,6,1,0.082842,0565,-0.346457,-0.062992,-0.086614,-0.07874,-0.165354,-0.110236,-0.228346,-0.425197,6,1,0.063492,0566,-0.669291,-0.228346,-0.283465,-0.338583,-0.84252,-0.055118,-0.165354,-0.244094,6,1,0.063492,0567,0.511811,0.094488,0.173228,0.11811,0.464567,0.086614,0.149606,0.173228,6,1,0.044142,0568,0.086614,0.244094,0.023622,0.007874,0.322835,-0.03937,-0.007874,0.283465,6,1,0.044142,0569,0.267717,-0.031496,-0.03937,-0.023622,-0.141732,0.015748,-0.220472,0.283465,6,1,0.024792,0570,0.511811,-0.015748,-0.275591,-0.19685,-0.275591,-0.094488,0.062992,-0.102362,6,1,0.024792,0571,-0.740157,-0.149606,-0.03937,-0.267717,-0.299213,-0.047244,0.007874,-0.173228,6,1,0.024792,0572,0.102362,-0.141732,-0.062992,0.141732,0.488189,0.228346,-0.07874,0.047244,6,1,0.024792,0573,-0.188976,0.086614,0.181102,-0.094488,0.015748,-0.023622,0.314961,0.228346,6,1,0.005442,0574,0.732283,0.07874,0.338583,0.370079,-0.031496,-0.031496,-0.094488,-0.047244,6,1,0.005442,0575,-0.598425,-0.047244,-0.102362,-0.173228,-0.165354,-0.165354,-0.259843,-0.15748,5,4,0.986092,0576,-0.480315,-0.149606,-0.094488,0.062992,-0.637795,-0.220472,0.055118,-0.244094,5,4,0.986092,0577,-0.267717,-0.031496,0.03937,0.251969,0.984252,0.417323,0.015748,-0.086614,5,4,0.966742,0578,0.409449,0.07874,0.15748,-0.330709,-0.007874,-0.086614,0.23622,0.566929,5,4,0.966742,0579,0.811024,-0.11811,-0.165354,-0.141732,0.259843,0.07874,0.07874,0.094488,5,4,0.947392,0580,-1.007874,0.228346,0.094488,0.188976,0.15748,0.047244,-0.07874,0.165354,5,4,0.947392,0581,0.740157,-0.031496,-0.094488,-0.212598,0.299213,-0.181102,-0.03937,-0.03937,5,4,0.928042,0582,-0.314961,0.07874,-0.165354,-0.125984,0.543307,0.,0.086614,-0.094488,5,4,0.928042,0583,0.606299,-0.031496,0.,-0.133858,0.370079,0.110236,0.007874,0.015748,5,4,0.928042,0584,-0.047244,-0.007874,-0.03937,-0.425197,-0.80315,-0.448819,-0.173228,-0.15748,5,4,0.928042,0585,-0.874016,-0.141732,-0.110236,0.055118,0.031496,0.188976,-0.322835,-0.433071,5,4,0.889342,0586,-0.220472,0.023622,0.377953,0.377953,0.440945,0.062992,-0.094488,-0.023622,5,4,0.889342,0587,-0.141732,0.023622,-0.267717,0.212598,0.031496,-0.086614,0.062992,0.212598,5,4,0.889342,0588,0.401575,-0.03937,-0.007874,-0.511811,-0.669291,0.023622,0.11811,0.133858,5,4,0.889342,0589,0.661417,0.125984,0.03937,0.23622,0.228346,0.165354,0.811024,0.661417,5,4,0.850642,0590,0.259843,-0.094488,-0.173228,-0.417323,-0.377953,-0.03937,-0.645669,0.015748,5,4,0.850642,0591,-0.779528,0.031496,0.19685,0.496063,0.267717,0.015748,-0.007874,-0.511811,5,4,0.850642,0592,-0.062992,0.023622,0.070866,0.456693,0.322835,0.094488,-0.031496,-0.007874,5,4,0.850642,0593,-0.007874,0.007874,0.023622,-0.283465,0.015748,0.015748,0.023622,0.03937,5,4,0.831293,0594,-0.503937,-0.181102,-0.11811,0.275591,-0.251969,-0.299213,-0.307087,-0.346457,5,4,0.831293,0595,0.070866,-0.007874,-0.03937,-0.370079,0.220472,0.11811,0.031496,-0.023622,5,4,0.831293,0596,-0.110236,0.094488,0.031496,0.212598,0.204724,-0.070866,-0.15748,-0.086614,5,4,0.831293,0597,0.433071,0.007874,0.015748,0.062992,-0.590551,-0.299213,0.094488,0.322835,5,4,0.792593,0598,0.354331,0.110236,0.031496,0.314961,0.574803,0.299213,0.23622,0.259843,5,4,0.792593,0599,-0.338583,-0.070866,-0.07874,-0.440945,-0.440945,-0.133858,-0.133858,-0.125984,5,4,0.792593,0600,0.244094,-0.055118,-0.110236,-0.070866,-0.086614,-0.251969,0.,-0.19685,5,4,0.792593,0601,-0.015748,-0.015748,-0.062992,0.,0.11811,0.047244,-0.023622,0.023622,5,4,0.753893,0602,-0.338583,0.015748,0.031496,-0.19685,-0.393701,0.03937,-0.102362,-0.204724,5,4,0.753893,0603,0.007874,-0.055118,-0.007874,0.23622,0.724409,0.291339,0.307087,0.125984,5,4,0.753893,0604,-0.047244,-0.023622,0.110236,-0.15748,-0.448819,-0.299213,-0.322835,0.102362,5,4,0.753893,0605,0.149606,0.047244,-0.031496,-0.11811,0.07874,0.055118,0.228346,0.370079,5,4,0.715193,0606,0.023622,0.055118,-0.03937,-0.055118,-0.19685,-0.23622,-0.385827,-0.19685,5,4,0.715193,0607,-0.047244,-0.031496,-0.102362,0.173228,0.299213,0.094488,0.330709,-0.19685,5,4,0.715193,0608,-0.015748,-0.03937,0.015748,-0.023622,0.094488,-0.15748,-0.228346,-0.362205,5,4,0.715193,0609,-0.055118,-0.047244,0.086614,0.251969,-0.165354,-0.055118,0.23622,-0.425197,5,4,0.695843,0610,-0.070866,-0.015748,-0.102362,-0.244094,-0.047244,-0.062992,-0.314961,-0.535433,5,4,0.695843,0611,0.11811,-0.007874,0.070866,0.212598,-0.102362,0.299213,0.377953,-0.433071,5,4,0.676493,0612,-0.015748,0.015748,-0.055118,-0.19685,-0.07874,0.03937,-0.062992,-0.275591,5,4,0.676493,0613,0.086614,0.070866,-0.03937,-0.070866,-0.110236,0.173228,-0.023622,-0.519685,5,4,0.657143,0614,-0.173228,0.070866,0.212598,0.19685,0.023622,-0.377953,-0.377953,-0.496063,5,4,0.657143,0615,-0.133858,-0.141732,-0.165354,-0.062992,-0.125984,-0.519685,-0.645669,-0.590551,5,4,0.657143,0616,0.086614,0.062992,-0.094488,-0.393701,0.23622,0.488189,0.645669,-0.543307,5,4,0.637793,0617,0.062992,0.133858,0.267717,0.314961,-0.338583,0.740157,-0.070866,-0.535433,5,4,0.637793,0618,0.015748,-0.149606,-0.007874,-0.062992,0.590551,0.267717,0.708661,-0.330709,5,4,0.637793,0619,0.,0.047244,0.007874,0.149606,-0.84252,-0.19685,-0.559055,-0.503937,5,4,0.637793,0620,0.07874,0.023622,0.07874,0.283465,0.551181,0.19685,0.275591,-0.527559,5,4,0.637793,0621,-0.188976,-0.11811,-0.228346,-0.456693,-0.094488,-0.511811,-0.141732,-0.622047,5,4,0.618443,0622,0.125984,0.07874,0.086614,0.094488,0.165354,0.299213,0.141732,-0.519685,5,4,0.618443,0623,0.086614,0.149606,0.070866,0.220472,0.259843,-0.259843,0.03937,-0.519685,5,4,0.618443,0624,-0.149606,-0.086614,-0.015748,-0.110236,0.125984,0.251969,-0.133858,-0.582677,5,4,0.618443,0625,0.047244,-0.015748,-0.047244,-0.125984,-0.330709,0.204724,0.259843,-0.417323,5,4,0.579743,0626,0.055118,-0.070866,-0.007874,-0.007874,0.440945,-0.15748,-0.212598,-0.582677,5,4,0.579743,0627,0.007874,0.007874,-0.023622,-0.070866,0.,-0.007874,-0.031496,-0.527559,5,4,0.579743,0628,-0.031496,0.031496,-0.031496,-0.165354,-0.787402,-0.322835,-0.251969,-0.543307,5,4,0.579743,0629,0.007874,-0.102362,-0.086614,-0.086614,0.637795,0.055118,0.11811,-0.385827,5,4,0.541043,0630,-0.047244,0.015748,0.015748,0.047244,0.03937,0.11811,0.244094,0.094488,5,4,0.541043,0631,-0.031496,-0.055118,-0.07874,-0.094488,-0.023622,0.086614,0.228346,0.062992,5,4,0.541043,0632,0.023622,0.086614,0.070866,-0.062992,-0.023622,-0.03937,-0.228346,0.023622,5,4,0.541043,0633,-0.047244,-0.086614,-0.15748,-0.220472,0.622047,0.425197,0.291339,0.165354,5,4,0.541043,0634,0.047244,0.031496,0.086614,-0.007874,-0.858268,-0.370079,-0.314961,0.141732,5,4,0.541043,0635,-0.007874,0.047244,0.102362,0.125984,0.291339,-0.15748,-0.488189,-0.047244,5,4,0.541043,0636,0.110236,0.007874,-0.07874,0.228346,-0.15748,0.212598,0.614173,0.094488,5,4,0.541043,0637,-0.062992,-0.086614,0.062992,0.330709,0.007874,-0.590551,-0.11811,0.031496,5,4,0.482993,0638,0.070866,0.062992,-0.070866,-0.204724,0.03937,0.133858,0.362205,0.086614,5,4,0.482993,0639,-0.07874,-0.086614,-0.062992,-0.377953,-0.755906,-0.385827,-0.88189,0.149606,5,4,0.482993,0640,-0.023622,-0.015748,-0.023622,0.007874,-0.015748,0.503937,0.393701,0.141732,5,4,0.482993,0641,0.031496,0.094488,-0.047244,0.023622,0.401575,-0.110236,-0.606299,-0.110236,5,4,0.444293,0642,0.,-0.062992,0.031496,0.055118,-0.354331,0.259843,0.220472,-0.03937,5,4,0.444293,0643,0.047244,0.015748,-0.007874,-0.015748,0.031496,-0.370079,0.244094,0.244094,5,4,0.444293,0644,-0.055118,-0.110236,-0.07874,-0.070866,0.110236,0.314961,-0.094488,-0.031496,5,4,0.444293,0645,-0.062992,-0.047244,-0.19685,-0.425197,-0.771654,-0.440945,0.03937,0.165354,5,4,0.405593,0646,-0.007874,0.102362,0.055118,0.023622,0.19685,0.259843,-0.086614,0.165354,5,4,0.405593,0647,-0.086614,-0.133858,-0.086614,-0.03937,-0.204724,-0.19685,-0.015748,0.141732,5,4,0.405593,0648,-0.031496,0.023622,-0.070866,0.,0.125984,-0.417323,-0.204724,0.070866,5,4,0.405593,0649,0.070866,0.062992,0.220472,0.614173,0.543307,0.244094,0.102362,0.362205,5,4,0.386243,0650,0.023622,0.007874,-0.094488,-0.283465,0.125984,0.299213,0.370079,0.314961,5,4,0.366893,0651,-0.047244,-0.023622,0.102362,0.314961,0.086614,-0.070866,-0.464567,0.165354,5,4,0.366893,0652,0.03937,0.031496,-0.023622,-0.055118,-0.125984,0.03937,0.425197,0.377953,5,4,0.366893,0653,0.,-0.055118,-0.15748,-0.212598,-0.007874,0.133858,-0.102362,0.220472,5,4,0.347543,0654,-0.070866,-0.133858,-0.094488,-0.173228,-0.622047,-0.629921,-0.251969,0.259843,5,4,0.347543,0655,-0.062992,-0.015748,-0.015748,0.03937,0.889764,0.346457,0.401575,0.19685,5,4,0.347543,0656,0.023622,0.015748,0.07874,0.007874,-0.03937,-0.362205,-0.661417,0.307087,5,4,0.347543,0657,0.031496,0.220472,0.448819,0.629921,0.417323,-0.094488,0.204724,0.425197,5,4,0.328193,0658,-0.031496,-0.15748,-0.212598,-0.070866,0.03937,-0.125984,-0.23622,0.062992,5,4,0.328193,0659,-0.015748,-0.086614,-0.07874,-0.314961,-0.440945,0.141732,0.488189,0.417323,5,4,0.328193,0660,0.03937,0.03937,0.007874,-0.062992,0.19685,-0.062992,-0.007874,-0.047244,5,4,0.328193,0661,-0.19685,-0.023622,0.023622,0.165354,-0.07874,-0.055118,-0.440945,-0.212598,5,4,0.289494,0662,0.07874,0.031496,0.,0.015748,0.370079,-0.102362,0.401575,0.283465,5,4,0.289494,0663,0.,0.055118,-0.031496,0.055118,-0.094488,0.165354,-0.23622,-0.086614,5,4,0.289494,0664,0.173228,-0.023622,-0.094488,-0.275591,-0.204724,0.181102,0.724409,0.354331,5,4,0.289494,0665,-0.062992,-0.023622,0.015748,-0.204724,-0.606299,-0.070866,-0.370079,0.015748,5,4,0.270144,0666,0.047244,-0.023622,0.03937,0.346457,0.055118,-0.023622,-0.299213,-0.094488,5,4,0.270144,0667,-0.03937,0.047244,-0.015748,-0.110236,-0.102362,-0.086614,0.141732,0.023622,5,4,0.270144,0668,-0.031496,-0.086614,0.07874,0.527559,0.76378,-0.188976,-0.527559,-0.251969,5,4,0.270144,0669,-0.007874,0.023622,-0.094488,-0.503937,-0.677165,-0.086614,-0.19685,0.212598,5,4,0.192744,0670,0.,0.055118,0.031496,-0.055118,-0.023622,0.212598,0.362205,0.125984,5,4,0.192744,0671,-0.102362,-0.149606,-0.062992,0.055118,0.456693,-0.023622,0.307087,0.141732,5,4,0.192744,0672,-0.110236,-0.070866,0.015748,-0.149606,-0.370079,-0.456693,-0.472441,-0.141732,5,4,0.192744,0673,0.03937,0.047244,0.094488,0.228346,-0.149606,0.251969,0.464567,0.19685,5,4,0.154044,0674,0.007874,0.07874,0.031496,-0.03937,0.488189,-0.031496,-0.173228,-0.031496,5,4,0.154044,0675,-0.055118,-0.188976,-0.007874,0.07874,-0.149606,-0.188976,-0.19685,0.023622,5,4,0.154044,0676,0.047244,0.19685,-0.07874,-0.212598,0.07874,0.007874,-0.031496,-0.141732,5,4,0.154044,0677,0.055118,-0.03937,-0.023622,0.031496,-0.125984,-0.496063,0.125984,0.204724,5,4,0.115344,0678,-0.03937,0.,0.031496,0.,0.19685,0.070866,0.031496,0.11811,5,4,0.115344,0679,-0.047244,-0.102362,0.062992,-0.047244,-0.212598,-0.220472,-0.204724,-0.031496,5,4,0.115344,0680,0.188976,0.110236,-0.110236,-0.133858,0.188976,0.188976,-0.055118,0.062992,5,4,0.115344,0681,-0.094488,-0.11811,-0.181102,-0.086614,-0.267717,-0.07874,0.362205,-0.055118,5,4,0.095994,0682,-0.086614,-0.102362,-0.055118,0.165354,0.03937,0.275591,-0.314961,-0.055118,5,4,0.095994,0683,0.007874,-0.023622,-0.023622,-0.086614,-0.543307,-0.433071,-0.031496,0.165354,5,4,0.076644,0684,0.149606,0.244094,0.322835,0.645669,0.464567,0.338583,-0.291339,-0.228346,5,4,0.076644,0685,-0.047244,-0.062992,-0.102362,-0.866142,0.23622,0.708661,0.574803,0.133858,5,4,0.057294,0686,-0.125984,-0.062992,-0.023622,0.094488,-0.708661,-0.456693,-0.267717,-0.031496,5,4,0.057294,0687,-0.055118,-0.188976,-0.055118,-0.015748,0.086614,0.692913,0.086614,-0.346457,5,4,0.057294,0688,0.031496,-0.031496,-0.023622,0.102362,-0.377953,-0.102362,0.84252,0.653543,5,4,0.057294,0689,0.086614,0.125984,0.244094,0.614173,0.692913,0.299213,-0.393701,-0.440945,5,4,0.018594,0690,0.03937,0.007874,0.055118,-0.070866,0.047244,0.047244,0.291339,0.291339,5,4,0.018594,0691,-0.11811,-0.188976,-0.086614,-0.283465,-0.409449,0.133858,-0.267717,0.015748,5,4,0.018594,0692,-0.094488,0.,0.015748,0.094488,0.062992,-0.047244,-0.464567,0.165354,5,4,0.018594,0693,0.11811,0.141732,0.086614,0.086614,0.370079,0.19685,-0.11811,-0.23622,5,3,0.999244,0694,0.11811,0.15748,0.007874,0.086614,-0.07874,0.062992,-0.141732,0.047244,5,3,0.999244,0695,0.393701,0.582677,0.102362,-0.19685,0.055118,0.464567,0.322835,0.204724,5,3,0.979894,0696,-0.370079,-0.448819,-0.11811,0.07874,0.212598,-0.220472,0.070866,-0.031496,5,3,0.979894,0697,-0.19685,-0.314961,-0.338583,-0.433071,-0.472441,-0.503937,-0.503937,0.165354,5,3,0.979894,0698,0.047244,0.015748,0.086614,0.23622,0.850394,0.251969,0.385827,-0.11811,5,3,0.979894,0699,0.047244,0.031496,0.141732,0.267717,0.480315,0.299213,0.055118,0.062992,5,3,0.941194,0700,0.023622,0.015748,-0.031496,0.007874,0.125984,-0.07874,-0.259843,0.015748,5,3,0.941194,0701,-0.102362,-0.023622,0.07874,-0.015748,-0.275591,0.110236,-0.023622,-0.086614,5,3,0.921844,0702,0.031496,-0.094488,-0.267717,-0.220472,-0.19685,-0.244094,-0.220472,0.03937,5,3,0.921844,0703,-0.070866,-0.110236,0.023622,0.086614,-0.125984,0.007874,0.307087,-0.031496,5,3,0.921844,0704,0.062992,0.023622,0.086614,-0.204724,-0.291339,-0.133858,-0.015748,0.023622,5,3,0.921844,0705,0.023622,0.055118,0.055118,0.11811,0.141732,-0.456693,-0.511811,-0.141732,5,3,0.902494,0706,-0.070866,-0.015748,-0.094488,-0.244094,-0.574803,0.03937,0.141732,0.07874,5,3,0.902494,0707,0.125984,0.377953,-0.031496,-0.110236,-0.007874,0.086614,0.275591,-0.11811,5,3,0.902494,0708,-0.11811,-0.15748,-0.047244,0.188976,-0.055118,0.11811,0.220472,-0.03937,5,3,0.902494,0709,0.062992,0.007874,0.062992,0.062992,0.551181,0.251969,0.488189,0.102362,5,3,0.863794,0710,0.007874,0.03937,-0.031496,-0.055118,-0.472441,0.212598,0.322835,0.102362,5,3,0.863794,0711,-0.047244,-0.07874,-0.07874,-0.125984,0.220472,-0.07874,-0.464567,-0.110236,5,3,0.844444,0712,0.,-0.015748,-0.031496,0.110236,0.503937,-0.031496,-0.062992,0.015748,5,3,0.844444,0713,-0.07874,-0.047244,-0.094488,-0.19685,-0.732283,-0.133858,0.062992,-0.15748,5,3,0.825094,0714,0.07874,0.094488,0.338583,0.464567,0.661417,0.086614,0.023622,0.094488,5,3,0.825094,0715,0.007874,0.007874,0.031496,0.204724,0.047244,0.07874,0.031496,0.047244,5,3,0.825094,0716,-0.03937,-0.055118,-0.173228,-0.299213,0.188976,0.07874,0.,-0.031496,5,3,0.825094,0717,-0.070866,-0.047244,0.007874,0.07874,-0.149606,-0.299213,-0.251969,-0.244094,5,3,0.805745,0718,0.007874,-0.070866,0.07874,-0.125984,-0.173228,0.165354,0.181102,-0.007874,5,3,0.805745,0719,0.055118,0.015748,-0.015748,0.07874,0.267717,0.11811,0.165354,0.133858,5,3,0.786395,0720,0.007874,0.03937,0.03937,0.,-0.629921,0.023622,-0.188976,0.055118,5,3,0.786395,0721,-0.031496,0.015748,0.007874,-0.062992,0.181102,0.007874,0.055118,0.086614,5,3,0.767045,0722,-0.19685,0.055118,-0.047244,0.094488,-0.023622,-0.377953,-0.314961,-0.346457,5,3,0.767045,0723,-0.007874,-0.141732,-0.047244,-0.007874,-0.015748,-0.346457,-0.173228,0.094488,5,3,0.747695,0724,0.094488,0.086614,0.047244,-0.086614,0.070866,0.440945,0.685039,0.370079,5,3,0.747695,0725,0.031496,-0.070866,-0.133858,-0.244094,-0.291339,0.015748,-0.267717,0.204724,5,3,0.728345,0726,0.007874,-0.047244,-0.023622,-0.070866,0.070866,0.023622,-0.047244,0.291339,5,3,0.728345,0727,-0.133858,0.023622,0.07874,0.212598,0.015748,0.007874,0.007874,0.244094,5,3,0.708995,0728,0.055118,0.031496,0.007874,-0.125984,-0.03937,-0.11811,-0.181102,0.11811,5,3,0.708995,0729,-0.015748,0.023622,0.11811,0.314961,0.125984,0.094488,0.015748,0.291339,5,3,0.708995,0730,-0.070866,-0.07874,-0.133858,-0.070866,-0.086614,-0.141732,-0.086614,0.133858,5,3,0.708995,0731,-0.023622,-0.047244,-0.094488,-0.055118,0.291339,0.062992,0.023622,0.283465,5,3,0.708995,0732,-0.07874,-0.031496,0.023622,0.015748,-0.11811,0.070866,0.125984,0.330709,5,3,0.689645,0733,0.15748,0.133858,0.015748,-0.19685,-0.125984,0.11811,0.244094,0.511811,5,3,0.689645,0734,0.023622,-0.102362,-0.070866,0.,0.11811,-0.047244,-0.251969,0.220472,5,3,0.689645,0735,-0.086614,-0.15748,0.007874,-0.062992,0.007874,0.03937,-0.055118,0.228346,5,3,0.689645,0736,-0.086614,0.007874,0.,0.094488,-0.212598,-0.125984,-0.062992,0.007874,5,3,0.689645,0737,0.062992,-0.062992,-0.165354,-0.259843,0.314961,-0.149606,-0.102362,0.047244,5,3,0.670295,0738,0.047244,0.047244,0.015748,0.,-0.165354,0.07874,0.03937,0.031496,5,3,0.670295,0739,-0.03937,0.031496,0.015748,-0.031496,0.047244,-0.086614,-0.062992,-0.047244,5,3,0.650945,0740,0.007874,0.055118,0.047244,0.11811,0.188976,0.15748,0.062992,0.03937,5,3,0.650945,0741,-0.031496,-0.023622,0.,0.370079,-0.023622,0.03937,0.110236,-0.023622,5,3,0.631595,0742,0.,0.015748,-0.133858,-0.338583,0.023622,-0.062992,-0.015748,-0.062992,5,3,0.631595,0743,-0.023622,0.,-0.047244,-0.086614,-0.125984,-0.031496,-0.055118,0.023622,5,3,0.631595,0744,-0.031496,-0.007874,0.055118,-0.133858,-0.338583,-0.07874,-0.015748,0.11811,5,3,0.631595,0745,-0.03937,0.07874,0.102362,0.283465,0.228346,0.07874,0.023622,0.062992,5,3,0.554195,0746,-0.031496,-0.133858,-0.11811,-0.173228,-0.023622,0.07874,-0.03937,0.031496,5,3,0.554195,0747,0.070866,-0.062992,-0.007874,-0.055118,-0.07874,0.015748,0.023622,0.070866,5,3,0.554195,0748,-0.03937,0.110236,-0.015748,0.031496,0.244094,0.,0.007874,0.007874,5,3,0.554195,0749,0.031496,-0.062992,-0.015748,0.03937,-0.102362,-0.007874,-0.055118,0.031496,5,3,0.534845,0750,-0.094488,-0.047244,0.007874,-0.086614,-0.11811,-0.015748,0.015748,0.007874,5,3,0.534845,0751,0.070866,0.094488,0.047244,0.11811,0.125984,0.173228,0.023622,0.102362,5,3,0.534845,0752,0.047244,-0.047244,-0.070866,-0.125984,-0.188976,-0.086614,-0.102362,0.031496,5,3,0.534845,0753,0.015748,-0.023622,0.,0.007874,0.031496,-0.11811,-0.007874,0.047244,5,3,0.496145,0754,-0.062992,-0.062992,0.015748,0.03937,-0.007874,0.03937,0.031496,0.031496,5,3,0.496145,0755,-0.023622,-0.015748,-0.015748,-0.031496,-0.055118,-0.212598,0.03937,0.015748,5,3,0.496145,0756,0.031496,-0.11811,-0.047244,-0.094488,-0.165354,-0.047244,0.,0.070866,5,3,0.476795,0757,-0.023622,-0.007874,-0.007874,0.070866,0.188976,0.110236,0.,0.062992,5,3,0.457445,0758,-0.03937,0.,-0.031496,-0.031496,-0.110236,-0.023622,0.070866,0.094488,5,3,0.457445,0759,0.03937,0.173228,0.007874,-0.062992,-0.07874,-0.015748,0.,0.015748,5,3,0.438095,0760,-0.047244,-0.133858,-0.055118,0.,0.055118,-0.062992,-0.023622,0.055118,5,3,0.438095,0761,-0.062992,-0.070866,0.047244,0.007874,-0.094488,-0.102362,-0.031496,-0.015748,5,3,0.438095,0762,0.07874,0.173228,0.110236,0.11811,0.125984,-0.055118,-0.015748,-0.015748,5,3,0.438095,0763,-0.055118,-0.070866,-0.031496,0.110236,0.267717,0.094488,-0.007874,0.03937,5,3,0.438095,0764,-0.031496,-0.023622,-0.031496,-0.141732,0.149606,0.110236,0.,-0.086614,5,3,0.438095,0765,0.062992,0.007874,-0.015748,0.031496,-0.228346,-0.015748,0.015748,-0.03937,5,3,0.380045,0766,-0.03937,0.141732,0.031496,0.031496,0.188976,0.023622,-0.007874,0.133858,5,3,0.380045,0767,0.007874,-0.094488,0.,-0.188976,-0.637795,-0.149606,-0.062992,-0.133858,5,3,0.380045,0768,-0.031496,-0.015748,-0.015748,0.07874,0.181102,0.070866,0.007874,0.015748,5,3,0.380045,0769,0.031496,-0.047244,0.03937,0.070866,0.062992,0.094488,0.015748,0.062992,5,3,0.360695,0770,-0.015748,-0.007874,-0.07874,-0.220472,-0.251969,-0.070866,-0.03937,0.023622,5,3,0.360695,0771,0.055118,-0.03937,-0.007874,0.086614,-0.023622,0.,-0.023622,-0.023622,5,3,0.341345,0772,-0.03937,-0.023622,-0.055118,-0.165354,-0.07874,0.070866,-0.015748,0.086614,5,3,0.341345,0773,-0.055118,-0.086614,0.031496,0.062992,-0.062992,-0.023622,-0.007874,-0.015748,5,3,0.321995,0774,-0.070866,-0.086614,-0.094488,0.055118,0.330709,-0.023622,-0.03937,-0.047244,5,3,0.321995,0775,0.007874,0.086614,0.055118,0.062992,0.314961,0.188976,0.023622,0.023622,5,3,0.302646,0776,-0.031496,-0.094488,-0.125984,-0.401575,-0.330709,0.015748,-0.015748,-0.133858,5,3,0.302646,0777,0.125984,0.346457,0.047244,0.03937,-0.031496,-0.031496,-0.007874,0.102362,5,3,0.302646,0778,0.086614,-0.047244,-0.007874,-0.007874,-0.102362,-0.015748,0.007874,0.015748,5,3,0.302646,0779,-0.102362,-0.07874,-0.03937,-0.023622,-0.11811,-0.055118,-0.062992,0.007874,5,3,0.302646,0780,0.015748,0.125984,0.275591,0.496063,0.346457,0.031496,0.047244,0.031496,5,3,0.302646,0781,-0.102362,-0.070866,-0.173228,-0.354331,-0.149606,-0.03937,-0.03937,-0.102362,5,3,0.283296,0782,0.062992,0.007874,0.062992,-0.015748,-0.251969,-0.015748,-0.015748,-0.015748,5,3,0.283296,0783,-0.03937,0.015748,-0.023622,0.023622,0.307087,-0.055118,0.,0.023622,5,3,0.283296,0784,0.015748,0.023622,-0.031496,-0.110236,-0.181102,-0.125984,-0.007874,0.,5,3,0.283296,0785,-0.062992,-0.07874,0.007874,0.181102,0.291339,-0.086614,-0.007874,0.070866,5,3,0.283296,0786,-0.007874,-0.102362,-0.031496,-0.094488,-0.15748,-0.07874,-0.031496,-0.07874,5,3,0.283296,0787,-0.015748,0.023622,-0.007874,0.031496,0.11811,-0.055118,0.03937,0.07874,5,3,0.263946,0788,-0.03937,-0.03937,-0.007874,-0.047244,-0.062992,-0.015748,0.023622,0.015748,5,3,0.263946,0789,-0.023622,-0.070866,-0.007874,0.007874,-0.023622,-0.03937,-0.031496,-0.070866,5,3,0.225246,0790,-0.007874,-0.047244,-0.055118,-0.03937,0.015748,-0.07874,-0.023622,0.055118,5,3,0.225246,0791,0.031496,0.102362,0.015748,0.181102,0.299213,-0.007874,0.,0.031496,5,3,0.225246,0792,0.047244,0.,-0.007874,-0.181102,-0.330709,-0.102362,-0.007874,0.023622,5,3,0.225246,0793,0.07874,0.102362,0.047244,0.141732,0.322835,0.11811,0.031496,0.,5,3,0.205896,0794,-0.070866,-0.11811,0.,-0.070866,-0.212598,0.125984,-0.055118,-0.03937,5,3,0.205896,0795,0.007874,-0.015748,-0.047244,-0.173228,-0.338583,0.015748,0.03937,0.031496,5,3,0.205896,0796,0.031496,0.102362,0.007874,0.047244,0.212598,0.047244,-0.007874,0.023622,5,3,0.205896,0797,-0.062992,-0.055118,-0.062992,-0.125984,0.023622,0.015748,-0.023622,0.015748,5,3,0.147846,0798,0.015748,0.031496,0.023622,-0.094488,-0.307087,0.03937,0.03937,0.047244,5,3,0.147846,0799,-0.023622,-0.165354,-0.070866,-0.007874,0.047244,-0.015748,-0.070866,0.031496,5,3,0.147846,0800,0.015748,0.,0.062992,0.503937,0.275591,0.070866,0.023622,-0.047244,5,3,0.147846,0801,0.03937,0.03937,-0.015748,-0.212598,-0.188976,0.007874,0.047244,0.031496,5,3,0.089796,0802,-0.023622,0.047244,0.007874,0.259843,0.677165,0.070866,-0.031496,0.031496,5,3,0.089796,0803,0.,-0.015748,-0.023622,-0.165354,-0.472441,-0.023622,0.015748,-0.031496,5,3,0.089796,0804,-0.007874,-0.047244,0.070866,0.07874,0.125984,0.,0.031496,-0.031496,5,3,0.089796,0805,-0.03937,-0.015748,-0.015748,-0.03937,0.,0.,-0.110236,0.015748,5,3,0.070446,0806,0.023622,0.023622,-0.015748,0.007874,-0.015748,0.007874,0.062992,0.023622,5,3,0.070446,0807,0.023622,0.,0.031496,0.,-0.015748,0.,0.,0.031496,5,3,0.070446,0808,-0.062992,-0.062992,-0.07874,-0.023622,-0.015748,0.023622,0.062992,0.023622,5,3,0.051096,0809,0.007874,0.015748,0.007874,0.015748,0.007874,-0.031496,-0.023622,0.023622,5,3,0.031746,0810,0.047244,0.015748,-0.015748,-0.047244,-0.007874,0.007874,-0.031496,0.023622,5,3,0.012396,0811,-0.023622,0.,0.,0.,0.,-0.07874,0.,0.070866,5,3,0.012396,0812,-0.047244,-0.031496,-0.031496,-0.03937,-0.023622,-0.031496,-0.023622,0.015748,5,3,0.012396,0813,0.015748,0.031496,0.023622,0.03937,0.055118,0.062992,-0.055118,0.086614,5,2,0.993046,0814,0.007874,-0.007874,-0.031496,-0.110236,-0.007874,-0.031496,0.023622,0.086614,5,2,0.993046,0815,-0.055118,-0.015748,-0.007874,0.110236,-0.149606,-0.062992,0.047244,0.031496,5,2,0.993046,0816,-0.031496,-0.102362,-0.07874,-0.070866,0.086614,-0.015748,0.007874,0.023622,5,2,0.993046,0817,0.007874,0.03937,0.007874,-0.007874,0.086614,0.047244,-0.047244,0.125984,5,2,0.954346,0818,0.023622,0.015748,0.03937,0.023622,-0.173228,-0.023622,0.047244,0.047244,5,2,0.954346,0819,0.007874,-0.07874,-0.047244,0.,0.03937,-0.047244,-0.023622,0.007874,5,2,0.954346,0820,0.031496,0.007874,0.03937,-0.102362,0.031496,0.055118,0.047244,0.03937,5,2,0.954346,0821,-0.055118,-0.015748,-0.007874,0.086614,0.007874,0.031496,-0.031496,0.03937,5,2,0.915646,0822,-0.007874,0.023622,-0.015748,-0.086614,-0.023622,-0.062992,-0.047244,0.055118,5,2,0.915646,0823,-0.047244,-0.047244,-0.03937,0.086614,0.094488,0.023622,0.031496,0.133858,5,2,0.915646,0824,-0.015748,-0.007874,0.007874,-0.055118,0.015748,0.015748,0.141732,0.007874,5,2,0.915646,0825,0.047244,-0.070866,-0.007874,-0.007874,-0.267717,-0.023622,-0.007874,-0.023622,5,2,0.896296,0826,0.007874,0.220472,0.023622,-0.062992,0.07874,-0.03937,-0.070866,0.094488,5,2,0.896296,0827,0.03937,0.062992,0.031496,0.055118,0.023622,-0.062992,-0.110236,0.055118,5,2,0.896296,0828,-0.007874,-0.133858,-0.055118,-0.015748,-0.173228,-0.03937,-0.401575,0.188976,5,2,0.876946,0829,-0.047244,-0.102362,-0.031496,-0.07874,0.062992,0.023622,0.267717,-0.055118,5,2,0.857596,0830,-0.015748,-0.015748,0.023622,0.094488,-0.086614,0.055118,0.141732,0.094488,5,2,0.857596,0831,-0.03937,0.015748,-0.062992,-0.212598,-0.133858,-0.023622,-0.07874,0.062992,5,2,0.838246,0832,-0.015748,0.007874,0.,0.19685,0.338583,0.062992,-0.110236,-0.023622,5,2,0.838246,0833,-0.031496,0.15748,0.047244,-0.133858,-0.283465,-0.181102,-0.110236,-0.031496,5,2,0.818896,0834,0.015748,-0.149606,-0.062992,-0.015748,-0.125984,0.047244,0.07874,0.055118,5,2,0.818896,0835,0.015748,0.031496,0.110236,0.212598,0.496063,0.055118,0.015748,0.031496,5,2,0.818896,0836,0.,-0.047244,-0.03937,-0.181102,-0.259843,-0.047244,0.015748,-0.062992,5,2,0.799546,0837,-0.055118,-0.094488,-0.11811,0.007874,0.03937,-0.007874,-0.07874,-0.094488,5,2,0.780197,0838,-0.055118,0.062992,0.023622,-0.007874,-0.007874,0.015748,0.015748,0.070866,5,2,0.780197,0839,0.03937,0.023622,0.023622,0.031496,-0.007874,0.031496,-0.015748,-0.023622,5,2,0.780197,0840,-0.086614,-0.11811,-0.023622,-0.062992,-0.086614,0.023622,-0.023622,-0.03937,5,2,0.780197,0841,-0.102362,-0.125984,-0.015748,0.023622,0.110236,-0.023622,-0.070866,-0.181102,5,2,0.760847,0842,0.03937,0.047244,-0.031496,-0.062992,-0.070866,0.023622,0.070866,0.070866,5,2,0.760847,0843,0.03937,-0.015748,-0.023622,-0.015748,-0.062992,-0.110236,-0.007874,0.070866,5,2,0.741497,0844,0.15748,0.314961,0.125984,0.031496,0.102362,0.070866,0.110236,0.125984,5,2,0.741497,0845,0.141732,0.07874,0.031496,0.03937,-0.015748,-0.11811,0.062992,0.314961,5,2,0.722147,0846,-0.19685,-0.204724,-0.062992,0.181102,0.188976,0.015748,-0.251969,-0.244094,5,2,0.722147,0847,-0.047244,-0.031496,-0.055118,-0.307087,-0.251969,0.,0.070866,-0.11811,5,2,0.702797,0848,-0.023622,0.031496,-0.023622,0.,0.055118,-0.055118,-0.023622,-0.023622,5,2,0.702797,0849,-0.031496,-0.086614,-0.047244,-0.023622,0.07874,0.291339,0.03937,-0.015748,5,2,0.683447,0850,-0.007874,-0.023622,0.102362,0.338583,0.062992,-0.141732,-0.007874,0.031496,5,2,0.683447,0851,0.023622,-0.015748,-0.070866,-0.141732,-0.149606,-0.062992,-0.007874,-0.023622,5,2,0.683447,0852,0.055118,0.015748,0.047244,0.03937,-0.031496,0.015748,0.03937,-0.047244,5,2,0.683447,0853,-0.015748,0.03937,0.015748,-0.086614,0.03937,0.110236,0.03937,0.047244,5,2,0.664097,0854,0.015748,-0.03937,-0.047244,0.03937,-0.015748,-0.03937,-0.023622,0.03937,5,2,0.664097,0855,-0.03937,-0.047244,-0.070866,-0.062992,-0.03937,-0.07874,-0.015748,-0.133858,5,2,0.664097,0856,-0.055118,-0.015748,-0.047244,-0.149606,-0.165354,0.031496,-0.015748,-0.047244,5,2,0.664097,0857,-0.015748,-0.047244,-0.047244,-0.070866,-0.031496,-0.015748,-0.03937,-0.062992,5,2,0.625397,0858,-0.031496,-0.023622,-0.055118,-0.062992,-0.102362,0.007874,-0.031496,-0.102362,5,2,0.625397,0859,-0.023622,-0.023622,-0.086614,-0.062992,0.023622,-0.086614,-0.03937,0.062992,5,2,0.625397,0860,0.023622,0.023622,0.055118,0.188976,0.125984,0.070866,0.055118,-0.055118,5,2,0.625397,0861,0.070866,0.070866,0.086614,0.173228,-0.023622,-0.023622,0.007874,0.03937,5,2,0.606047,0862,0.047244,0.047244,0.102362,-0.133858,0.031496,0.055118,0.047244,-0.07874,5,2,0.606047,0863,-0.055118,-0.007874,-0.015748,0.15748,-0.173228,-0.102362,-0.023622,-0.173228,5,2,0.606047,0864,-0.015748,-0.07874,-0.070866,-0.102362,0.007874,-0.047244,-0.015748,0.,5,2,0.606047,0865,-0.03937,-0.007874,0.03937,0.086614,-0.023622,0.031496,-0.03937,-0.133858,5,2,0.606047,0866,0.015748,-0.03937,-0.047244,-0.110236,-0.094488,0.007874,-0.015748,0.023622,5,2,0.606047,0867,-0.015748,-0.023622,-0.086614,-0.149606,0.070866,0.244094,0.031496,0.086614,5,2,0.606047,0868,-0.015748,0.,0.007874,0.,-0.07874,-0.23622,-0.047244,0.102362,5,2,0.606047,0869,-0.007874,-0.015748,-0.062992,-0.031496,0.07874,-0.086614,0.007874,0.110236,5,2,0.606047,0870,-0.062992,-0.03937,-0.007874,0.,-0.047244,-0.110236,-0.055118,0.125984,5,2,0.606047,0871,0.03937,0.007874,0.031496,0.062992,0.015748,-0.031496,0.007874,0.181102,5,2,0.586697,0872,-0.007874,-0.015748,0.07874,0.220472,0.330709,-0.062992,0.,0.401575,5,2,0.586697,0873,0.023622,0.03937,0.,-0.086614,-0.181102,-0.062992,-0.031496,0.220472,5,2,0.586697,0874,-0.031496,0.055118,0.007874,-0.031496,0.023622,0.031496,0.062992,0.133858,5,2,0.586697,0875,-0.03937,-0.102362,-0.11811,-0.141732,-0.385827,0.007874,-0.070866,0.283465,5,2,0.586697,0876,-0.023622,-0.062992,-0.204724,-0.614173,-0.456693,-0.047244,-0.086614,0.212598,5,2,0.586697,0877,-0.023622,-0.015748,0.03937,0.370079,0.496063,0.086614,0.015748,0.291339,5,2,0.567347,0878,0.023622,0.015748,0.007874,0.023622,0.070866,-0.094488,0.007874,0.251969,5,2,0.567347,0879,0.055118,0.11811,0.338583,0.519685,0.448819,0.267717,0.110236,0.464567,5,2,0.567347,0880,0.062992,0.102362,-0.03937,0.094488,-0.094488,-0.062992,0.015748,0.19685,5,2,0.567347,0881,-0.031496,-0.086614,-0.173228,-0.488189,-0.23622,0.,-0.031496,0.433071,5,2,0.547997,0882,-0.031496,-0.055118,-0.015748,-0.102362,0.165354,0.047244,-0.031496,0.267717,5,2,0.547997,0883,0.,-0.015748,0.015748,0.110236,-0.047244,-0.047244,-0.047244,0.283465,5,2,0.547997,0884,0.,0.,0.07874,0.322835,-0.062992,-0.047244,0.,0.377953,5,2,0.547997,0885,0.007874,0.031496,0.023622,0.007874,-0.015748,-0.03937,0.03937,0.354331,5,2,0.547997,0886,0.023622,-0.007874,-0.023622,-0.267717,-0.031496,0.031496,0.007874,0.393701,5,2,0.528647,0887,-0.031496,-0.023622,-0.015748,-0.055118,0.,0.031496,-0.023622,0.314961,5,2,0.528647,0888,-0.031496,0.023622,0.110236,0.299213,0.023622,0.133858,-0.007874,0.370079,5,2,0.528647,0889,-0.023622,-0.015748,-0.086614,-0.181102,0.031496,-0.181102,0.015748,0.440945,5,2,0.528647,0890,0.031496,0.047244,0.055118,0.110236,-0.15748,0.03937,0.,0.385827,5,2,0.528647,0891,-0.07874,0.007874,-0.03937,-0.062992,0.110236,-0.047244,-0.015748,0.149606,5,2,0.528647,0892,0.023622,-0.031496,0.03937,0.173228,0.15748,0.,0.007874,0.047244,5,2,0.528647,0893,0.031496,0.,-0.094488,-0.181102,-0.275591,-0.070866,0.,0.023622,5,2,0.528647,0894,-0.023622,-0.007874,-0.015748,-0.275591,-0.07874,-0.055118,-0.023622,-0.007874,5,2,0.528647,0895,0.015748,-0.031496,-0.03937,-0.031496,0.11811,-0.094488,-0.03937,0.007874,5,2,0.509297,0896,0.,-0.007874,-0.062992,-0.086614,0.133858,0.086614,-0.007874,0.,5,2,0.509297,0897,-0.023622,-0.007874,0.149606,0.259843,-0.307087,-0.031496,-0.023622,-0.015748,5,2,0.509297,0898,-0.062992,-0.047244,-0.11811,0.283465,0.188976,0.188976,0.007874,-0.007874,5,2,0.509297,0899,0.007874,0.007874,0.11811,-0.07874,-0.133858,-0.086614,0.007874,0.007874,5,2,0.509297,0900,-0.03937,0.,-0.070866,-0.212598,-0.07874,0.062992,0.023622,-0.015748,5,2,0.509297,0901,-0.03937,-0.047244,-0.133858,-0.19685,-0.03937,-0.070866,-0.015748,-0.007874,5,2,0.489947,0902,0.023622,0.007874,0.055118,0.023622,-0.07874,-0.007874,0.007874,0.031496,5,2,0.489947,0903,-0.007874,-0.007874,0.023622,0.370079,0.181102,-0.031496,-0.07874,0.031496,5,2,0.489947,0904,-0.047244,-0.070866,-0.023622,-0.291339,-0.15748,0.,-0.055118,-0.047244,5,2,0.489947,0905,-0.055118,-0.070866,-0.070866,-0.141732,0.062992,0.062992,-0.047244,0.031496,5,2,0.470597,0906,0.031496,0.023622,-0.047244,0.03937,0.11811,-0.070866,-0.007874,0.031496,5,2,0.470597,0907,-0.07874,-0.047244,-0.047244,-0.125984,-0.204724,-0.03937,0.007874,-0.055118,5,2,0.470597,0908,0.047244,-0.031496,0.023622,0.338583,0.070866,-0.007874,0.023622,-0.228346,5,2,0.470597,0909,0.015748,0.015748,0.03937,-0.188976,-0.031496,-0.023622,-0.023622,-0.456693,5,2,0.470597,0910,0.062992,0.03937,0.070866,0.102362,-0.015748,-0.023622,0.015748,-0.480315,5,2,0.470597,0911,0.03937,0.047244,-0.023622,-0.173228,-0.181102,-0.070866,0.,-0.456693,5,2,0.451247,0912,-0.102362,0.023622,0.023622,0.283465,0.440945,0.055118,-0.047244,-0.566929,5,2,0.451247,0913,0.015748,-0.047244,-0.086614,-0.346457,-0.267717,0.062992,0.,-0.503937,5,2,0.451247,0914,0.023622,0.007874,0.070866,0.275591,-0.055118,-0.11811,0.007874,-0.566929,5,2,0.451247,0915,0.015748,0.03937,0.047244,-0.275591,-0.023622,0.007874,0.007874,-0.511811,5,2,0.451247,0916,-0.007874,-0.007874,-0.031496,-0.149606,-0.181102,-0.110236,-0.007874,-0.519685,5,2,0.451247,0917,0.031496,0.023622,0.047244,0.496063,0.377953,-0.055118,0.015748,-0.496063,5,2,0.431897,0918,0.047244,0.015748,-0.031496,-0.149606,0.07874,-0.007874,-0.007874,-0.551181,5,2,0.431897,0919,-0.023622,0.,0.023622,-0.070866,-0.19685,0.015748,0.086614,-0.456693,5,2,0.431897,0920,-0.055118,-0.015748,0.,0.03937,-0.244094,0.007874,-0.031496,-0.535433,5,2,0.431897,0921,-0.047244,-0.047244,-0.125984,-0.141732,0.133858,-0.007874,-0.086614,-0.566929,5,2,0.431897,0922,0.,0.015748,0.03937,-0.188976,-0.338583,-0.125984,-0.007874,-0.496063,5,2,0.431897,0923,-0.062992,-0.055118,-0.031496,0.220472,0.456693,0.007874,-0.102362,-0.700787,5,2,0.431897,0924,0.070866,0.070866,0.03937,-0.204724,-0.102362,-0.007874,0.15748,-0.362205,5,2,0.431897,0925,0.11811,0.094488,0.251969,0.590551,0.23622,0.047244,0.03937,-0.456693,5,2,0.393197,0926,-0.094488,-0.125984,-0.070866,0.244094,0.377953,0.141732,-0.094488,-0.204724,5,2,0.393197,0927,0.031496,0.047244,0.141732,-0.023622,-0.425197,-0.086614,0.03937,0.,5,2,0.393197,0928,0.07874,-0.047244,-0.173228,-0.440945,-0.007874,-0.03937,0.03937,0.181102,5,2,0.373847,0929,-0.055118,0.007874,0.007874,-0.267717,-0.377953,-0.047244,-0.023622,0.094488,5,2,0.373847,0930,-0.031496,0.015748,-0.047244,-0.086614,0.149606,0.,-0.007874,0.031496,5,2,0.373847,0931,-0.062992,-0.086614,-0.110236,-0.094488,0.023622,0.07874,0.007874,-0.03937,5,2,0.373847,0932,-0.015748,-0.047244,-0.062992,-0.102362,-0.125984,0.007874,-0.023622,0.141732,5,2,0.373847,0933,0.070866,0.062992,0.062992,0.314961,0.322835,-0.055118,0.070866,0.165354,5,2,0.373847,0934,0.03937,0.023622,0.062992,-0.181102,-0.330709,0.015748,-0.07874,-0.015748,5,2,0.373847,0935,-0.102362,-0.047244,-0.125984,0.055118,-0.023622,-0.047244,-0.031496,0.141732,5,2,0.373847,0936,0.007874,0.,-0.007874,0.204724,0.070866,0.055118,0.023622,0.125984,5,2,0.354497,0937,0.031496,-0.03937,-0.055118,-0.133858,-0.291339,-0.047244,-0.023622,0.102362,5,2,0.315797,0938,-0.204724,-0.086614,-0.094488,-0.086614,-0.023622,0.023622,-0.070866,0.070866,5,2,0.315797,0939,0.11811,0.015748,-0.023622,-0.133858,0.086614,-0.125984,-0.015748,0.11811,5,2,0.315797,0940,-0.023622,0.015748,0.070866,0.102362,0.251969,0.125984,0.07874,0.055118,5,2,0.315797,0941,0.03937,0.03937,0.015748,0.047244,0.086614,0.11811,0.062992,0.031496,5,2,0.296447,0942,-0.023622,-0.062992,-0.070866,-0.15748,0.338583,0.047244,0.055118,0.055118,5,2,0.279516,0943,-0.086614,-0.031496,-0.007874,-0.007874,-0.23622,-0.055118,-0.11811,0.15748,5,2,0.277098,0944,-0.023622,-0.03937,-0.031496,0.133858,-0.07874,-0.299213,-0.181102,0.03937,5,2,0.277098,0945,0.031496,0.015748,-0.031496,0.031496,-0.149606,-0.007874,0.086614,0.23622,5,2,0.219048,0946,-0.094488,-0.070866,-0.07874,-0.299213,-0.031496,-0.062992,-0.031496,0.102362,5,2,0.219048,0947,0.133858,0.133858,0.110236,0.23622,0.19685,0.267717,0.149606,0.228346,5,2,0.219048,0948,-0.110236,-0.102362,-0.110236,-0.291339,-0.007874,-0.007874,-0.086614,0.11811,5,2,0.219048,0949,0.086614,0.03937,0.062992,0.125984,-0.07874,0.031496,-0.015748,0.15748,5,2,0.219048,0950,0.023622,0.062992,-0.023622,-0.031496,-0.220472,-0.110236,0.07874,0.425197,5,2,0.219048,0951,-0.07874,-0.047244,-0.055118,-0.125984,-0.251969,-0.055118,-0.086614,0.149606,5,2,0.199698,0952,0.086614,0.047244,0.086614,0.094488,0.070866,-0.015748,-0.007874,0.299213,5,2,0.199698,0953,0.03937,0.03937,-0.055118,-0.141732,-0.149606,-0.007874,0.023622,0.244094,5,2,0.180348,0954,0.007874,-0.023622,0.094488,0.385827,0.448819,0.11811,0.015748,0.188976,5,2,0.180348,0955,-0.047244,-0.015748,-0.07874,-0.015748,-0.125984,-0.047244,-0.015748,0.212598,5,2,0.180348,0956,-0.023622,-0.023622,0.023622,-0.070866,-0.03937,0.07874,0.007874,0.338583,5,2,0.180348,0957,-0.23622,-0.094488,-0.023622,0.007874,0.267717,-0.102362,-0.055118,0.314961,5,2,0.160998,0958,0.165354,0.047244,-0.023622,0.086614,-0.80315,0.055118,0.007874,0.440945,5,2,0.160998,0959,-0.015748,-0.015748,0.047244,0.204724,1.,0.062992,-0.03937,0.251969,5,2,0.141648,0960,-0.094488,-0.07874,-0.102362,-0.244094,-0.661417,-0.094488,-0.070866,0.204724,5,2,0.141648,0961,0.031496,-0.023622,-0.055118,-0.102362,0.07874,0.,0.031496,0.464567,5,2,0.122298,0962,-0.11811,-0.007874,0.023622,0.,0.267717,0.086614,0.062992,0.488189,5,2,0.122298,0963,-0.125984,-0.007874,-0.007874,-0.015748,-0.244094,0.,-0.055118,0.307087,5,2,0.122298,0964,0.015748,0.031496,-0.023622,0.07874,0.716535,0.141732,-0.07874,0.330709,5,2,0.122298,0965,-0.03937,-0.047244,0.055118,-0.188976,-0.551181,-0.11811,-0.07874,0.299213,5,2,0.083598,0966,-0.086614,-0.086614,-0.007874,0.393701,0.346457,-0.165354,-0.165354,-0.047244,5,2,0.083598,0967,0.291339,0.047244,-0.007874,-0.149606,-0.322835,0.094488,0.204724,0.370079,5,2,0.083598,0968,0.125984,0.031496,-0.023622,-0.291339,-0.03937,0.03937,0.19685,0.181102,5,2,0.083598,0969,-0.141732,0.007874,0.031496,0.291339,0.440945,0.086614,-0.062992,0.007874,5,2,0.064248,0970,0.094488,0.055118,-0.03937,-0.212598,-0.283465,-0.07874,0.007874,0.062992,5,2,0.064248,0971,0.015748,-0.023622,0.023622,-0.055118,-0.141732,0.023622,-0.047244,-0.007874,5,2,0.064248,0972,-0.133858,0.015748,0.03937,0.291339,0.19685,-0.047244,-0.031496,0.086614,5,2,0.064248,0973,-0.110236,-0.070866,-0.07874,-0.062992,-0.047244,-0.094488,-0.062992,0.007874,5,2,0.044898,0974,-0.031496,0.007874,0.023622,0.062992,0.070866,-0.015748,-0.023622,-0.007874,5,2,0.044898,0975,0.086614,0.,-0.031496,0.03937,0.385827,0.007874,-0.007874,0.062992,5,2,0.044898,0976,0.228346,0.062992,-0.015748,-0.204724,-0.125984,0.141732,0.110236,0.23622,5,2,0.044898,0977,0.007874,-0.031496,0.031496,0.173228,-0.244094,0.,0.031496,0.007874,5,2,0.006198,0978,-0.149606,0.,-0.070866,-0.070866,-0.070866,-0.133858,-0.047244,0.11811,5,2,0.006198,0979,-0.173228,-0.03937,-0.070866,-0.102362,-0.149606,-0.03937,-0.133858,-0.07874,5,2,0.006198,0980,0.031496,-0.031496,-0.015748,-0.023622,0.094488,0.015748,0.,0.015748,5,2,0.006198,0981,-0.007874,0.007874,-0.007874,-0.07874,0.551181,0.070866,0.031496,0.188976,5,1,0.967498,0982,-0.133858,-0.03937,-0.047244,-0.031496,-0.07874,-0.015748,-0.094488,-0.07874,5,1,0.967498,0983,-0.031496,-0.007874,0.03937,0.110236,0.015748,-0.094488,0.,-0.070866,5,1,0.967498,0984,0.07874,0.007874,0.03937,0.267717,0.,0.015748,-0.023622,0.015748,5,1,0.967498,0985,0.173228,0.031496,-0.03937,-0.188976,-0.913386,-0.086614,0.023622,0.141732,5,1,0.948148,0986,0.338583,0.031496,0.094488,0.062992,0.173228,0.181102,0.204724,0.220472,5,1,0.948148,0987,-0.377953,-0.055118,-0.03937,-0.102362,-0.007874,0.055118,-0.062992,-0.07874,5,1,0.948148,0988,0.055118,0.047244,-0.047244,0.031496,-0.047244,-0.125984,-0.07874,-0.094488,5,1,0.948148,0989,0.023622,0.007874,0.015748,-0.133858,0.401575,0.007874,0.023622,0.031496,5,1,0.928798,0990,-0.055118,0.007874,0.055118,0.031496,-0.330709,-0.07874,-0.031496,0.015748,5,1,0.928798,0991,-0.188976,-0.03937,-0.07874,0.015748,0.440945,-0.094488,-0.007874,-0.062992,5,1,0.909448,0992,0.062992,0.015748,-0.062992,-0.23622,-0.283465,-0.055118,0.,0.023622,5,1,0.909448,0993,-0.055118,-0.086614,-0.07874,-0.125984,-0.307087,0.,-0.031496,-0.007874,5,1,0.890098,0994,0.03937,0.03937,0.062992,0.212598,0.07874,0.047244,-0.023622,-0.047244,5,1,0.890098,0995,0.480315,0.070866,0.031496,-0.094488,-0.212598,0.15748,0.094488,0.314961,5,1,0.890098,0996,-0.11811,0.047244,0.149606,0.23622,-0.291339,-0.094488,0.031496,0.015748,5,1,0.890098,0997,-0.133858,-0.102362,-0.149606,-0.299213,0.,-0.007874,-0.086614,-0.094488,5,1,0.870748,0998,-0.086614,-0.015748,-0.023622,-0.023622,-0.212598,0.023622,-0.007874,-0.023622,5,1,0.870748,0999,0.007874,0.015748,0.,0.047244,0.299213,0.03937,0.015748,-0.023622,5,1,0.870748,01000,-0.094488,-0.031496,0.031496,0.023622,-0.11811,-0.212598,-0.094488,-0.031496,5,1,0.851398,01001,0.,0.11811,0.133858,0.11811,0.220472,0.03937,0.023622,0.047244,5,1,0.832048,01002,0.,-0.070866,-0.094488,-0.125984,0.125984,0.086614,0.031496,-0.062992,5,1,0.832048,01003,-0.425197,-0.110236,-0.07874,-0.07874,-0.173228,-0.149606,-0.133858,-0.19685,5,1,0.832048,01004,0.,0.094488,0.007874,0.11811,0.393701,0.03937,-0.031496,-0.125984,5,1,0.832048,01005,0.204724,-0.007874,0.,0.055118,-0.188976,-0.007874,0.031496,-0.070866,5,1,0.832048,01006,0.086614,-0.055118,-0.07874,-0.188976,0.582677,-0.007874,0.03937,0.212598,5,1,0.832048,01007,0.590551,0.086614,0.03937,0.007874,-0.362205,0.070866,0.188976,0.220472,5,1,0.812698,01008,-0.346457,-0.133858,0.055118,0.165354,0.141732,-0.070866,-0.086614,-0.086614,5,1,0.812698,01009,-0.267717,0.023622,-0.007874,0.094488,0.503937,-0.015748,-0.07874,-0.125984,5,1,0.773998,01010,0.07874,-0.015748,-0.031496,-0.062992,0.023622,-0.007874,-0.023622,0.007874,5,1,0.773998,01011,0.086614,0.007874,-0.062992,-0.173228,-0.370079,-0.062992,0.,0.102362,5,1,0.773998,01012,-0.094488,0.,0.055118,0.228346,0.322835,0.07874,0.015748,-0.141732,5,1,0.773998,01013,-0.23622,-0.062992,-0.086614,-0.19685,0.354331,0.110236,-0.055118,-0.133858,5,1,0.754649,01014,0.03937,-0.055118,-0.102362,-0.283465,-0.472441,-0.212598,-0.055118,-0.007874,5,1,0.754649,01015,0.015748,-0.023622,-0.07874,-0.07874,-0.535433,-0.047244,-0.007874,-0.03937,5,1,0.754649,01016,-0.110236,-0.023622,-0.062992,-0.141732,0.346457,0.055118,-0.03937,0.102362,5,1,0.754649,01017,0.047244,0.062992,0.055118,0.133858,-0.259843,-0.047244,-0.03937,-0.15748,5,1,0.735299,01018,0.204724,0.023622,0.07874,0.07874,-0.244094,0.,0.047244,0.173228,5,1,0.735299,01019,0.094488,0.055118,0.188976,0.456693,0.80315,0.181102,0.110236,0.141732,5,1,0.715949,01020,0.11811,-0.023622,0.015748,0.07874,-0.173228,0.,0.062992,0.181102,5,1,0.715949,01021,-0.244094,0.015748,0.094488,0.141732,-0.19685,-0.070866,-0.07874,0.03937,5,1,0.657899,01022,0.070866,-0.062992,-0.188976,-0.385827,0.19685,-0.094488,-0.070866,0.047244,5,1,0.657899,01023,-0.047244,-0.062992,0.055118,0.07874,0.110236,0.125984,0.055118,-0.047244,5,1,0.657899,01024,-0.031496,0.062992,0.055118,0.220472,0.110236,-0.031496,-0.031496,-0.03937,5,1,0.657899,01025,-0.165354,-0.015748,-0.07874,-0.212598,-0.133858,0.062992,-0.062992,-0.015748,5,1,0.619199,01026,-0.228346,-0.133858,-0.007874,0.149606,-0.11811,-0.031496,-0.07874,-0.464567,5,1,0.619199,01027,0.023622,0.031496,-0.015748,-0.173228,-0.015748,-0.086614,0.,0.015748,5,1,0.619199,01028,0.181102,-0.023622,-0.007874,-0.062992,0.559055,0.062992,0.047244,0.070866,5,1,0.619199,01029,0.244094,0.,-0.007874,0.354331,-0.472441,-0.023622,0.086614,0.062992,5,1,0.580499,01030,0.047244,0.181102,0.055118,-0.102362,-0.07874,-0.07874,-0.047244,0.070866,5,1,0.580499,01031,-0.047244,-0.070866,0.110236,0.267717,-0.11811,-0.047244,0.007874,0.023622,5,1,0.580499,01032,-0.133858,-0.023622,0.007874,-0.03937,-0.370079,-0.023622,-0.023622,-0.070866,5,1,0.580499,01033,-0.15748,-0.031496,-0.062992,-0.03937,0.275591,0.055118,-0.070866,-0.133858,5,1,0.541799,01034,0.,-0.062992,-0.07874,-0.204724,0.055118,0.133858,-0.062992,0.031496,5,1,0.541799,01035,0.023622,-0.086614,-0.141732,-0.220472,-0.787402,-0.338583,-0.094488,0.07874,5,1,0.541799,01036,0.141732,0.047244,0.,0.133858,0.574803,0.031496,0.023622,0.031496,5,1,0.541799,01037,0.181102,0.165354,0.094488,0.11811,-0.362205,0.086614,0.110236,0.188976,5,1,0.503099,01038,-0.110236,-0.023622,0.070866,0.354331,0.11811,0.031496,0.094488,-0.11811,5,1,0.503099,01039,-0.141732,-0.031496,-0.023622,-0.322835,-0.244094,-0.149606,-0.125984,0.03937,5,1,0.503099,01040,0.094488,-0.055118,-0.188976,-0.299213,-0.551181,-0.23622,-0.023622,0.133858,5,1,0.503099,01041,0.023622,-0.03937,0.110236,0.055118,0.622047,0.03937,0.102362,0.125984,5,1,0.464399,01042,-0.047244,0.015748,-0.047244,0.149606,-0.606299,-0.047244,-0.055118,0.031496,5,1,0.464399,01043,-0.220472,-0.055118,-0.007874,-0.015748,-0.393701,-0.15748,-0.15748,-0.141732,5,1,0.445049,01044,0.094488,0.062992,0.047244,0.03937,0.031496,0.283465,0.086614,0.11811,5,1,0.445049,01045,-0.007874,0.03937,0.031496,0.110236,0.354331,0.070866,0.03937,0.055118,5,1,0.425699,01046,-0.204724,-0.031496,-0.149606,-0.354331,0.905512,-0.19685,-0.23622,-0.173228,5,1,0.425699,01047,-0.086614,0.007874,0.062992,0.007874,0.307087,0.283465,-0.015748,-0.125984,5,1,0.406349,01048,-0.047244,-0.070866,-0.110236,0.03937,0.440945,0.102362,0.047244,0.007874,5,1,0.406349,01049,0.188976,0.141732,0.133858,0.055118,0.535433,0.110236,0.086614,0.125984,5,1,0.367649,01050,0.149606,0.141732,0.110236,0.062992,0.535433,0.267717,0.188976,0.204724,5,1,0.367649,01051,-0.181102,-0.181102,-0.267717,-0.244094,-0.385827,-0.220472,-0.133858,-0.141732,5,1,0.367649,01052,-0.023622,-0.11811,-0.023622,-0.283465,0.283465,-0.094488,-0.070866,0.047244,5,1,0.367649,01053,0.19685,-0.181102,-0.086614,0.055118,-0.850394,-0.204724,0.047244,0.275591,5,1,0.367649,01054,-0.149606,0.055118,0.086614,0.188976,1.,0.133858,0.031496,0.007874,5,1,0.367649,01055,0.267717,0.314961,0.188976,0.314961,-0.409449,0.11811,0.141732,0.19685,5,1,0.328949,01056,0.11811,0.047244,-0.062992,-0.291339,-0.622047,0.291339,0.055118,0.141732,5,1,0.328949,01057,-0.149606,-0.07874,-0.023622,0.11811,0.496063,-0.19685,-0.070866,-0.055118,5,1,0.290249,01058,-0.15748,-0.165354,-0.125984,-0.03937,-0.535433,-0.19685,-0.125984,-0.023622,5,1,0.290249,01059,-0.133858,-0.03937,-0.023622,-0.125984,0.88189,0.125984,-0.07874,-0.173228,5,1,0.290249,01060,-0.047244,-0.015748,-0.023622,0.031496,-0.905512,-0.259843,-0.062992,0.03937,5,1,0.290249,01061,-0.03937,0.070866,-0.007874,-0.141732,-0.456693,0.015748,0.023622,-0.070866,5,1,0.25155,01062,-0.15748,-0.055118,-0.19685,-0.19685,0.086614,-0.165354,-0.086614,-0.11811,5,1,0.25155,01063,-0.03937,-0.094488,-0.031496,-0.070866,0.488189,0.102362,0.03937,-0.055118,5,1,0.25155,01064,0.007874,0.055118,0.125984,0.314961,-0.047244,-0.102362,0.047244,0.133858,5,1,0.25155,01065,0.015748,0.,-0.07874,-0.220472,1.,0.291339,0.173228,0.149606,5,1,0.21285,01066,0.598425,0.102362,0.283465,0.291339,-0.92126,-0.070866,0.007874,0.322835,5,1,0.21285,01067,-0.385827,-0.07874,-0.149606,0.480315,0.897638,-0.070866,-0.055118,-0.165354,5,1,0.1935,01068,-0.055118,-0.125984,-0.307087,-1.007874,-0.275591,-0.188976,-0.102362,0.,5,1,0.1935,01069,-0.062992,-0.03937,-0.031496,0.125984,-0.685039,-0.181102,-0.141732,-0.03937,5,1,0.17415,01070,-0.070866,0.055118,0.188976,0.110236,-0.055118,0.338583,0.11811,0.133858,5,1,0.1548,01071,-0.425197,-0.102362,0.11811,0.141732,0.913386,0.023622,-0.165354,-0.173228,5,1,0.1548,01072,0.062992,0.086614,0.220472,0.519685,0.133858,0.141732,-0.086614,-0.11811,5,1,0.1548,01073,-0.149606,-0.055118,-0.110236,-0.637795,-0.251969,-0.110236,0.031496,0.055118,5,1,0.13545,01074,-0.055118,0.031496,0.,0.228346,0.692913,0.062992,0.283465,0.141732,5,1,0.13545,01075,0.417323,0.15748,-0.015748,-0.244094,-0.677165,-0.212598,-0.15748,0.173228,5,1,0.13545,01076,-0.125984,0.070866,0.03937,0.094488,0.346457,0.062992,0.149606,-0.031496,5,1,0.13545,01077,0.748031,-0.15748,-0.086614,-0.094488,0.11811,-0.181102,-0.11811,0.314961,5,1,0.0774,01078,-0.535433,0.023622,0.047244,0.511811,-0.055118,0.19685,-0.007874,-0.204724,5,1,0.0774,01079,0.244094,-0.133858,0.031496,-0.15748,0.125984,-0.259843,0.062992,0.291339,5,1,0.0774,01080,-0.385827,-0.047244,-0.03937,-0.220472,-0.826772,0.007874,0.023622,-0.070866,5,1,0.0774,01081,0.488189,0.125984,-0.102362,-0.204724,-0.496063,0.055118,-0.03937,0.086614,5,1,0.0387,01082,-0.110236,-0.062992,0.062992,0.283465,0.086614,-0.110236,-0.110236,-0.354331,5,1,0.0387,01083,-0.267717,-0.070866,-0.173228,-0.354331,-0.433071,-0.149606,-0.125984,-0.007874,5,1,0.0387,01084,0.19685,0.086614,0.11811,-0.181102,-0.244094,0.03937,0.141732,0.102362,5,1,0.0387,01085,-0.015748,-0.023622,-0.055118,-0.188976,0.007874,0.062992,0.007874,0.007874,4,4,1.,01086,-0.047244,-0.055118,-0.062992,-0.354331,-0.409449,0.031496,-0.141732,-0.047244,4,4,1.,01087,-0.425197,-0.062992,0.086614,0.456693,0.480315,0.283465,-0.173228,-0.433071,4,4,0.98065,01088,-0.259843,0.062992,-0.031496,0.110236,0.165354,0.007874,0.07874,0.173228,4,4,0.98065,01089,0.244094,0.015748,0.031496,0.07874,-0.755906,-0.110236,0.149606,-0.07874,4,4,0.9613,01090,-0.031496,0.047244,0.,0.102362,0.377953,-0.007874,-0.031496,0.086614,4,4,0.9613,01091,0.795276,0.015748,0.007874,-0.007874,-0.291339,0.244094,0.023622,0.244094,4,4,0.9613,01092,-0.15748,-0.023622,-0.070866,-0.015748,0.299213,-0.031496,0.291339,0.188976,4,4,0.94195,01093,0.031496,-0.015748,0.07874,0.370079,0.433071,0.015748,-0.275591,-0.23622,4,4,0.9226,01094,-0.354331,0.031496,-0.03937,-0.212598,-0.204724,-0.094488,0.03937,0.062992,4,4,0.9226,01095,0.220472,-0.094488,0.062992,-0.062992,0.228346,-0.055118,0.007874,0.173228,4,4,0.90325,01096,-0.393701,-0.228346,-0.188976,0.133858,0.110236,-0.03937,0.015748,-0.244094,4,4,0.90325,01097,-0.055118,-0.031496,-0.11811,-0.133858,-0.377953,-0.299213,0.007874,-0.07874,4,4,0.8839,01098,-0.181102,0.023622,0.007874,-0.070866,0.03937,-0.007874,-0.19685,-0.23622,4,4,0.8839,01099,0.283465,0.385827,0.133858,-0.007874,0.614173,0.102362,0.11811,0.448819,4,4,0.86455,01100,0.566929,-0.007874,-0.007874,0.228346,-0.275591,-0.094488,-0.102362,0.165354,4,4,0.86455,01101,-0.346457,-0.15748,0.19685,0.173228,0.307087,0.165354,0.03937,-0.149606,4,4,0.82585,01102,-0.141732,-0.023622,-0.259843,-0.267717,-0.527559,-0.055118,0.133858,0.149606,4,4,0.82585,01103,-0.244094,0.023622,0.03937,-0.456693,-0.559055,0.007874,0.19685,-0.188976,4,4,0.82585,01104,-0.11811,-0.086614,-0.03937,0.299213,0.685039,-0.055118,-0.503937,-0.15748,4,4,0.82585,01105,0.11811,-0.03937,0.007874,0.047244,-0.086614,0.,-0.023622,0.133858,4,4,0.78715,01106,0.125984,0.015748,-0.047244,-0.401575,-0.188976,-0.15748,-0.102362,-0.322835,4,4,0.78715,01107,-0.062992,0.03937,-0.007874,0.291339,0.645669,0.354331,0.330709,0.102362,4,4,0.78715,01108,-0.19685,0.,0.141732,0.149606,-0.480315,-0.259843,-0.23622,-0.047244,4,4,0.78715,01109,0.086614,-0.015748,-0.062992,-0.031496,0.23622,0.031496,0.,-0.212598,4,4,0.74845,01110,0.700787,0.204724,0.102362,-0.031496,-0.291339,-0.062992,0.15748,0.755906,4,4,0.74845,01111,0.212598,-0.19685,-0.15748,-0.314961,0.212598,-0.055118,-0.07874,-0.11811,4,4,0.74845,01112,-0.622047,0.102362,0.094488,0.220472,0.244094,0.370079,-0.047244,-0.291339,4,4,0.74845,01113,0.244094,-0.062992,-0.007874,-0.102362,-0.299213,-0.15748,0.062992,0.330709,4,4,0.709751,01114,0.03937,-0.070866,-0.047244,-0.251969,0.094488,0.070866,-0.047244,-0.125984,4,4,0.709751,01115,0.259843,0.047244,-0.023622,0.188976,-0.070866,-0.047244,0.133858,0.086614,4,4,0.709751,01116,-0.102362,0.,0.173228,0.094488,-0.07874,-0.055118,0.015748,0.,4,4,0.690401,01117,-0.173228,-0.110236,-0.125984,-0.125984,0.220472,0.,-0.007874,-0.03937,4,4,0.671051,01118,-0.070866,-0.11811,-0.149606,-0.188976,-0.173228,-0.07874,-0.165354,-0.15748,4,4,0.671051,01119,-0.19685,-0.062992,-0.023622,0.086614,-0.677165,-0.181102,-0.133858,0.141732,4,4,0.671051,01120,0.425197,0.181102,0.023622,-0.031496,0.385827,0.03937,0.102362,0.070866,4,4,0.671051,01121,-0.322835,0.212598,-0.102362,-0.299213,-0.03937,-0.023622,0.125984,0.015748,4,4,0.632351,01122,-0.062992,-0.070866,0.299213,0.519685,0.267717,0.181102,0.03937,0.015748,4,4,0.632351,01123,0.385827,0.062992,0.007874,0.165354,0.15748,0.062992,-0.055118,0.220472,4,4,0.632351,01124,0.110236,-0.055118,0.015748,-0.267717,-0.598425,-0.031496,0.094488,0.165354,4,4,0.632351,01125,-0.125984,-0.031496,-0.15748,0.070866,0.220472,0.023622,-0.086614,-0.03937,4,4,0.593651,01126,0.165354,0.125984,0.338583,0.330709,0.125984,0.007874,0.03937,-0.047244,4,4,0.593651,01127,-0.165354,-0.031496,-0.173228,-0.259843,0.086614,-0.015748,-0.062992,0.031496,4,4,0.593651,01128,-0.653543,-0.133858,-0.023622,-0.149606,0.062992,-0.291339,-0.440945,-0.448819,4,4,0.593651,01129,-0.11811,-0.055118,-0.055118,0.070866,-0.023622,0.141732,-0.007874,-0.015748,4,4,0.535601,01130,-0.023622,-0.007874,0.047244,0.047244,0.307087,-0.110236,0.165354,0.015748,4,4,0.535601,01131,0.204724,0.094488,-0.055118,-0.015748,-0.677165,0.094488,0.385827,0.307087,4,4,0.535601,01132,0.417323,-0.070866,-0.023622,-0.299213,-0.204724,0.03937,0.244094,0.244094,4,4,0.535601,01133,-0.740157,-0.023622,-0.149606,-0.259843,0.448819,-0.110236,-0.614173,-0.23622,4,4,0.496901,01134,0.598425,0.086614,0.094488,0.283465,0.251969,0.267717,0.188976,0.062992,4,4,0.496901,01135,0.086614,-0.031496,0.031496,0.354331,0.322835,-0.070866,0.007874,0.354331,4,4,0.477551,01136,0.110236,0.015748,0.015748,-0.015748,-0.291339,0.086614,0.03937,-0.19685,4,4,0.477551,01137,-0.425197,-0.015748,0.015748,0.,0.267717,-0.149606,-0.15748,-0.086614,4,4,0.458201,01138,-0.338583,-0.212598,-0.377953,-0.503937,-0.133858,-0.11811,-0.070866,-0.07874,4,4,0.458201,01139,-0.15748,0.015748,-0.062992,-0.19685,-0.440945,-0.055118,-0.007874,0.133858,4,4,0.458201,01140,0.314961,-0.086614,-0.15748,-0.102362,0.291339,0.07874,0.03937,0.102362,4,4,0.438851,01141,-0.401575,0.015748,0.322835,-0.023622,0.165354,-0.015748,-0.228346,-0.409449,4,4,0.419501,01142,0.204724,0.03937,0.086614,0.692913,-0.251969,-0.07874,-0.125984,-0.393701,4,4,0.419501,01143,-0.527559,-0.023622,0.055118,-0.346457,-0.354331,-0.007874,-0.055118,-0.275591,4,4,0.419501,01144,0.433071,0.023622,-0.141732,0.07874,0.354331,0.047244,0.086614,0.425197,4,4,0.419501,01145,-0.897638,-0.212598,-0.19685,-0.173228,-0.543307,-0.259843,-0.362205,-0.622047,4,4,0.380801,01146,-0.125984,0.094488,0.125984,-0.220472,-0.07874,0.023622,-0.102362,0.086614,4,4,0.380801,01147,0.370079,-0.062992,0.070866,0.307087,0.440945,0.212598,0.07874,-0.228346,4,4,0.380801,01148,-0.220472,0.047244,-0.094488,-0.141732,-0.527559,-0.251969,-0.125984,-0.102362,4,4,0.380801,01149,0.141732,0.062992,0.102362,0.15748,0.511811,0.19685,0.354331,0.322835,4,4,0.380801,01150,-0.480315,-0.228346,-0.031496,0.165354,0.425197,-0.102362,-0.291339,-0.165354,4,4,0.380801,01151,0.393701,-0.023622,-0.133858,-0.322835,-0.291339,0.023622,-0.228346,-0.149606,4,4,0.380801,01152,-0.566929,0.055118,0.015748,0.15748,0.07874,-0.062992,0.11811,0.07874,4,4,0.380801,01153,0.566929,0.023622,0.03937,0.03937,0.551181,0.173228,0.220472,0.031496,4,4,0.380801,01154,-0.275591,-0.086614,-0.267717,-0.094488,-0.566929,-0.173228,0.023622,0.070866,4,4,0.380801,01155,-0.330709,-0.070866,-0.047244,0.070866,0.181102,0.062992,-0.07874,-0.629921,4,4,0.380801,01156,-0.110236,0.070866,0.070866,-0.133858,0.385827,0.047244,0.11811,0.15748,4,4,0.380801,01157,0.622047,-0.023622,-0.070866,0.023622,-0.259843,0.181102,0.07874,0.19685,4,4,0.342101,01158,0.212598,-0.055118,0.070866,-0.275591,0.11811,-0.055118,0.015748,-0.047244,4,4,0.342101,01159,-0.866142,-0.125984,-0.204724,-0.070866,0.110236,0.212598,-0.354331,-0.456693,4,4,0.322751,01160,-0.204724,0.007874,0.070866,-0.023622,-0.685039,-0.338583,-0.204724,-0.173228,4,4,0.322751,01161,-0.007874,0.094488,0.401575,0.653543,-0.181102,-0.047244,-0.070866,-0.173228,4,4,0.322751,01162,0.692913,0.070866,-0.023622,-0.228346,-0.456693,-0.03937,0.275591,0.385827,4,4,0.322751,01163,-0.275591,-0.125984,-0.259843,0.070866,0.519685,0.181102,0.244094,0.346457,4,4,0.303401,01164,-0.614173,-0.275591,-0.047244,-0.244094,0.220472,-0.19685,-0.244094,0.425197,4,4,0.303401,01165,0.023622,0.102362,-0.110236,-0.102362,-0.094488,-0.11811,-0.338583,-0.11811,4,4,0.303401,01166,0.425197,0.204724,0.094488,0.11811,0.062992,0.220472,0.03937,0.165354,4,4,0.303401,01167,-0.385827,-0.141732,-0.007874,0.094488,-0.590551,-0.433071,-0.023622,0.212598,4,4,0.303401,01168,0.440945,0.141732,0.007874,-0.070866,0.622047,0.377953,0.275591,0.19685,4,4,0.303401,01169,0.448819,-0.055118,0.023622,-0.03937,0.015748,-0.062992,-0.220472,0.393701,4,4,0.303401,01170,-0.228346,0.110236,-0.03937,0.11811,-0.070866,0.031496,0.307087,0.425197,4,4,0.303401,01171,0.535433,0.204724,0.393701,0.700787,0.795276,0.204724,0.23622,0.440945,4,4,0.284051,01172,-0.291339,-0.275591,-0.283465,-0.110236,-0.456693,-0.322835,-0.354331,-0.023622,4,4,0.284051,01173,-0.590551,-0.11811,0.11811,-0.141732,-0.480315,-0.055118,-0.094488,-0.401575,4,4,0.284051,01174,0.181102,0.047244,-0.102362,-0.204724,-0.07874,0.023622,0.070866,0.212598,4,4,0.284051,01175,0.503937,0.094488,0.228346,0.251969,0.629921,0.251969,0.149606,0.629921,4,4,0.284051,01176,0.291339,-0.110236,-0.110236,-0.047244,-0.590551,0.015748,0.023622,-0.307087,4,4,0.284051,01177,-0.291339,0.047244,0.094488,-0.141732,0.15748,-0.15748,-0.307087,-0.417323,4,4,0.284051,01178,-0.330709,-0.062992,-0.23622,-0.086614,0.307087,0.015748,-0.181102,-0.133858,4,4,0.264701,01179,0.11811,0.015748,-0.070866,-0.314961,-0.653543,-0.314961,-0.062992,0.11811,4,4,0.264701,01180,0.141732,0.133858,0.007874,-0.228346,0.637795,0.228346,0.267717,0.094488,4,4,0.264701,01181,-0.047244,-0.165354,0.015748,0.574803,0.23622,0.19685,0.440945,-0.102362,4,4,0.264701,01182,-0.606299,-0.141732,0.133858,0.307087,0.740157,-0.110236,-0.275591,-0.511811,4,4,0.264701,01183,-0.181102,0.015748,0.023622,-0.204724,-0.346457,-0.165354,-0.448819,-0.070866,4,4,0.245351,01184,0.23622,0.055118,-0.094488,-0.110236,-0.417323,0.070866,0.346457,0.377953,4,4,0.245351,01185,-0.559055,0.173228,0.015748,-0.015748,0.110236,0.220472,0.488189,0.811024,4,4,0.245351,01186,0.795276,0.015748,0.149606,-0.03937,-0.03937,-0.188976,-0.070866,-0.307087,4,4,0.245351,01187,-0.086614,-0.03937,-0.204724,-0.291339,0.,-0.086614,-0.188976,0.19685,4,4,0.245351,01188,0.204724,-0.007874,-0.133858,0.11811,0.80315,0.220472,0.047244,-0.015748,4,4,0.245351,01189,0.330709,0.,0.023622,0.11811,0.346457,-0.023622,-0.07874,-0.07874,4,4,0.245351,01190,-0.559055,-0.094488,-0.125984,0.291339,0.629921,0.244094,-0.007874,-0.165354,4,4,0.245351,01191,-0.023622,0.023622,0.023622,-0.574803,-1.007874,-0.440945,-0.220472,-0.173228,4,4,0.206652,01192,-0.031496,-0.094488,0.,-0.393701,-0.251969,0.086614,-0.251969,0.015748,4,4,0.206652,01193,-0.070866,0.007874,-0.055118,0.07874,-0.11811,-0.086614,0.03937,0.212598,4,4,0.187302,01194,-0.03937,-0.07874,0.165354,0.055118,-0.070866,0.204724,0.181102,-0.07874,4,4,0.167952,01195,-0.291339,-0.133858,-0.11811,-0.03937,0.188976,0.023622,0.267717,-0.141732,4,4,0.129252,01196,0.,0.,-0.15748,-0.314961,-0.937008,-0.19685,-0.362205,-0.007874,4,4,0.129252,01197,-0.015748,0.19685,0.047244,-0.015748,0.984252,0.228346,0.,-0.094488,4,4,0.109902,01198,0.425197,0.181102,0.102362,0.377953,-0.11811,0.212598,0.220472,0.622047,4,4,0.109902,01199,0.370079,-0.03937,-0.07874,-0.19685,-0.19685,-0.165354,-0.047244,-0.055118,4,4,0.071202,01200,-0.314961,-0.07874,0.204724,0.125984,-0.094488,0.,0.07874,0.086614,4,4,0.071202,01201,-0.015748,-0.094488,-0.125984,-0.299213,-0.070866,0.070866,-0.062992,0.03937,4,4,0.051852,01202,-0.125984,-0.062992,-0.173228,-0.047244,-0.094488,0.007874,-0.086614,-0.125984,4,4,0.051852,01203,-0.055118,0.023622,0.055118,-0.173228,0.165354,-0.047244,-0.377953,-0.023622,4,4,0.032502,01204,0.015748,0.03937,0.015748,0.149606,-0.220472,-0.015748,0.133858,0.023622,4,4,0.032502,01205,-0.047244,-0.031496,-0.03937,-0.094488,0.015748,-0.228346,0.110236,0.007874,4,4,0.032502,01206,-0.086614,-0.125984,-0.228346,-0.496063,-0.228346,0.07874,0.212598,-0.07874,4,4,0.013152,01207,0.086614,0.,0.062992,0.519685,0.834646,0.370079,0.03937,0.267717,4,3,0.993802,01208,0.047244,0.125984,0.220472,0.015748,-0.425197,-0.007874,-0.023622,0.110236,4,3,0.993802,01209,-0.070866,-0.110236,-0.110236,0.086614,0.023622,-0.244094,0.047244,-0.031496,4,3,0.993802,01210,0.094488,0.086614,-0.062992,-0.11811,-0.346457,0.275591,0.299213,0.165354,4,3,0.993802,01211,0.007874,0.023622,0.165354,0.11811,0.102362,0.149606,-0.244094,0.,4,3,0.993802,01212,0.,0.149606,0.181102,0.377953,0.606299,0.070866,-0.559055,-0.267717,4,3,0.993802,01213,-0.204724,-0.141732,-0.070866,-0.488189,-0.732283,-0.307087,-0.212598,-0.070866,4,3,0.955102,01214,-0.133858,-0.110236,-0.181102,-0.015748,-0.11811,-0.724409,-0.314961,-0.23622,4,3,0.955102,01215,0.007874,0.086614,0.102362,0.212598,0.259843,0.724409,0.314961,0.023622,4,3,0.916402,01216,0.212598,-0.094488,-0.110236,-0.299213,-0.275591,-0.307087,0.15748,0.149606,4,3,0.916402,01217,0.062992,0.110236,0.102362,0.141732,-0.110236,0.267717,-0.19685,-0.023622,4,3,0.897052,01218,-0.188976,-0.055118,-0.03937,-0.07874,0.212598,-0.204724,-0.464567,-0.149606,4,3,0.897052,01219,0.07874,-0.047244,0.047244,-0.086614,-0.614173,0.181102,0.354331,0.181102,4,3,0.858352,01220,0.047244,0.023622,-0.102362,0.110236,0.543307,0.440945,0.314961,0.165354,4,3,0.858352,01221,-0.031496,-0.062992,0.,-0.11811,-0.354331,-0.173228,-0.488189,-0.204724,4,3,0.839002,01222,-0.102362,0.007874,-0.11811,-0.23622,-0.173228,-0.566929,-0.433071,0.070866,4,3,0.839002,01223,-0.015748,0.047244,0.03937,0.03937,-0.448819,-0.488189,0.11811,-0.19685,4,3,0.800302,01224,-0.102362,-0.110236,0.031496,0.15748,0.740157,-0.133858,-0.574803,-0.173228,4,3,0.800302,01225,0.125984,0.094488,0.047244,0.228346,-0.07874,0.362205,0.850394,0.181102,4,3,0.800302,01226,-0.086614,-0.094488,-0.007874,0.125984,-0.259843,-0.456693,-0.84252,-0.141732,4,3,0.800302,01227,-0.07874,-0.023622,-0.07874,0.110236,-0.251969,-0.03937,0.165354,-0.070866,4,3,0.742252,01228,-0.070866,-0.125984,-0.259843,-0.401575,0.023622,0.102362,0.149606,0.055118,4,3,0.742252,01229,0.07874,-0.047244,0.,-0.086614,0.149606,0.055118,0.015748,0.110236,4,3,0.742252,01230,0.03937,0.102362,0.188976,-0.015748,0.07874,-0.094488,-0.244094,0.094488,4,3,0.742252,01231,0.07874,0.11811,0.070866,0.047244,0.267717,0.433071,0.086614,-0.11811,4,3,0.684203,01232,0.047244,0.03937,0.133858,0.456693,0.433071,0.543307,-0.188976,0.086614,4,3,0.684203,01233,-0.244094,-0.110236,-0.346457,-0.582677,-0.937008,-1.007874,-0.818898,-0.503937,4,3,0.664853,01234,0.15748,-0.03937,0.,-0.015748,0.338583,0.88189,1.,0.464567,4,3,0.664853,01235,0.,-0.070866,-0.102362,-0.03937,0.330709,-0.456693,0.015748,0.102362,4,3,0.626153,01236,-0.047244,0.007874,0.070866,-0.007874,-0.834646,0.007874,0.669291,0.102362,4,3,0.626153,01237,0.03937,0.031496,0.070866,-0.094488,-0.125984,0.228346,-0.755906,-0.086614,4,3,0.626153,01238,-0.133858,0.023622,0.094488,0.598425,0.425197,0.03937,-0.314961,0.007874,4,3,0.606803,01239,0.07874,-0.023622,-0.165354,-0.393701,-0.133858,-0.086614,0.15748,0.055118,4,3,0.568103,01240,0.094488,0.031496,-0.070866,0.055118,0.370079,0.417323,0.259843,0.047244,4,3,0.548753,01241,-0.015748,0.023622,0.07874,-0.055118,-0.023622,-0.338583,-0.149606,0.283465,4,3,0.548753,01242,0.,-0.03937,0.03937,0.070866,0.212598,0.559055,0.606299,-0.15748,4,3,0.548753,01243,-0.102362,-0.070866,-0.15748,-0.283465,0.488189,-0.267717,-0.834646,-0.165354,4,3,0.510053,01244,-0.094488,-0.03937,-0.007874,-0.07874,-0.503937,-0.645669,0.133858,-0.110236,4,3,0.510053,01245,0.094488,-0.015748,0.015748,0.385827,0.062992,0.330709,0.385827,0.141732,4,3,0.510053,01246,0.11811,0.19685,-0.031496,-0.669291,-0.07874,-0.094488,0.370079,0.204724,4,3,0.510053,01247,-0.062992,-0.094488,0.181102,0.834646,0.401575,-0.031496,-0.346457,-0.102362,4,3,0.452003,01248,0.031496,-0.062992,0.102362,0.007874,-0.188976,0.551181,0.488189,0.015748,4,3,0.452003,01249,0.015748,0.11811,0.007874,0.244094,-0.267717,0.102362,-0.055118,-0.11811,4,3,0.452003,01250,0.,-0.094488,0.023622,-0.086614,-0.299213,0.173228,0.212598,-0.299213,4,3,0.432653,01251,0.133858,0.047244,0.023622,0.007874,0.771654,0.370079,0.385827,0.055118,4,3,0.393953,01252,-0.354331,-0.11811,-0.228346,-0.433071,-0.149606,-0.84252,-0.795276,-0.165354,4,3,0.393953,01253,0.165354,-0.015748,-0.007874,0.19685,-0.015748,0.771654,0.88189,0.283465,4,3,0.374603,01254,0.007874,0.015748,-0.062992,-0.362205,0.181102,0.007874,-0.88189,-0.173228,4,3,0.374603,01255,0.015748,0.023622,0.070866,-0.007874,-0.417323,-0.055118,-0.19685,0.,4,3,0.316553,01256,-0.07874,0.007874,0.149606,0.472441,0.173228,0.23622,0.03937,0.015748,4,3,0.316553,01257,0.023622,0.023622,-0.188976,-0.370079,0.299213,-0.149606,-0.173228,-0.047244,4,3,0.316553,01258,-0.062992,0.015748,0.07874,-0.07874,-0.480315,0.15748,-0.125984,-0.031496,4,3,0.316553,01259,-0.094488,-0.141732,-0.023622,0.23622,-0.669291,-0.976378,-0.055118,-0.125984,4,3,0.239153,01260,0.047244,0.141732,0.055118,0.259843,0.866142,0.267717,0.393701,-0.015748,4,3,0.239153,01261,-0.031496,-0.015748,-0.015748,-0.055118,-0.133858,0.094488,-0.480315,0.094488,4,3,0.239153,01262,0.149606,-0.031496,0.299213,0.417323,0.598425,0.251969,0.149606,0.086614,4,3,0.239153,01263,0.007874,0.015748,-0.173228,-0.141732,0.291339,0.653543,0.574803,0.165354,4,3,0.219803,01264,-0.015748,-0.015748,0.015748,-0.15748,-0.094488,-0.181102,-0.314961,0.141732,4,3,0.219803,01265,-0.259843,-0.141732,-0.188976,-0.023622,0.291339,0.070866,-0.401575,-0.401575,4,3,0.219803,01266,0.047244,-0.141732,-0.283465,-0.614173,-0.385827,-0.944882,0.031496,-0.023622,4,3,0.219803,01267,-0.086614,0.102362,0.055118,0.07874,0.496063,0.76378,0.637795,0.299213,4,3,0.200454,01268,0.094488,0.015748,0.070866,0.19685,-0.330709,0.259843,0.370079,-0.047244,4,3,0.200454,01269,-0.007874,0.023622,0.19685,-0.086614,0.086614,0.173228,-0.354331,0.047244,4,3,0.181104,01270,0.03937,0.062992,0.03937,0.472441,-0.417323,-0.425197,-0.188976,0.133858,4,3,0.181104,01271,-0.031496,-0.023622,-0.165354,-0.669291,-0.401575,-0.267717,-0.291339,0.03937,4,3,0.142404,01272,0.15748,-0.007874,-0.062992,0.070866,0.23622,0.212598,-0.566929,0.110236,4,3,0.142404,01273,0.070866,-0.007874,0.086614,0.102362,-0.023622,-0.07874,0.748031,-0.070866,4,3,0.142404,01274,-0.173228,0.,0.275591,0.700787,-0.251969,-0.15748,0.188976,0.094488,4,3,0.142404,01275,-0.094488,-0.149606,-0.346457,-0.543307,-0.031496,-0.417323,-0.582677,0.07874,4,3,0.123054,01276,0.023622,-0.023622,0.212598,0.314961,-0.133858,0.354331,0.299213,0.220472,4,3,0.123054,01277,0.047244,0.047244,-0.007874,0.07874,0.346457,-0.511811,-0.385827,-0.125984,4,3,0.123054,01278,0.007874,-0.094488,-0.07874,-0.031496,0.464567,0.377953,0.393701,0.062992,4,3,0.103704,01279,0.023622,0.047244,0.23622,0.354331,-0.590551,-0.204724,-0.220472,0.173228,4,3,0.084354,01280,-0.165354,0.070866,0.03937,-0.267717,0.149606,-0.944882,-0.362205,-0.07874,4,3,0.084354,01281,0.251969,0.07874,-0.102362,0.055118,0.165354,0.527559,0.614173,0.566929,4,3,0.065004,01282,-0.007874,0.062992,0.220472,0.314961,0.401575,0.96063,0.425197,-0.031496,4,3,0.065004,01283,-0.070866,0.031496,-0.165354,-0.007874,0.307087,0.07874,-0.409449,-0.346457,4,3,0.045654,01284,0.062992,-0.102362,-0.031496,-0.307087,-0.472441,-0.102362,-0.275591,-0.031496,4,3,0.045654,01285,-0.15748,-0.07874,-0.110236,0.19685,0.464567,-0.811024,0.354331,0.031496,4,3,0.045654,01286,0.062992,0.165354,0.015748,-0.015748,0.204724,0.07874,-0.795276,-0.031496,4,3,0.026304,01287,0.070866,-0.023622,-0.133858,-0.062992,0.740157,0.472441,0.614173,0.015748,4,3,0.006954,01288,-0.11811,-0.15748,-0.204724,-0.409449,-0.771654,-0.15748,-0.125984,-0.19685,4,3,0.006954,01289,0.055118,-0.007874,0.031496,0.141732,0.669291,0.251969,0.496063,0.015748,4,2,0.987604,01290,0.141732,0.11811,0.23622,0.181102,-0.086614,0.275591,0.275591,0.204724,4,2,0.987604,01291,0.,0.11811,0.488189,0.385827,-0.299213,0.,-0.393701,-0.03937,4,2,0.987604,01292,-0.062992,-0.047244,-0.19685,0.141732,0.551181,-0.503937,-0.480315,-0.086614,4,2,0.987604,01293,-0.15748,-0.086614,-0.275591,-0.76378,-0.370079,-0.181102,0.055118,-0.212598,4,2,0.968254,01294,-0.070866,-0.031496,-0.204724,-0.125984,-0.330709,-0.425197,0.598425,0.133858,4,2,0.968254,01295,0.15748,-0.094488,-0.023622,-0.188976,-1.007874,-0.472441,-0.149606,-0.19685,4,2,0.968254,01296,0.259843,0.244094,0.15748,0.622047,1.,0.771654,0.551181,0.181102,4,2,0.968254,01297,-0.055118,-0.094488,-0.015748,-0.11811,-0.015748,0.283465,-0.606299,-0.023622,4,2,0.929554,01298,-0.070866,-0.070866,-0.070866,-0.259843,-0.228346,0.031496,-0.251969,-0.11811,4,2,0.929554,01299,-0.031496,-0.007874,-0.007874,0.110236,0.291339,-0.070866,-0.251969,-0.031496,4,2,0.910204,01300,0.,-0.070866,-0.03937,-0.385827,-0.614173,-0.448819,-0.527559,-0.070866,4,2,0.910204,01301,-0.110236,0.007874,-0.023622,-0.070866,-0.141732,0.11811,0.047244,-0.141732,4,2,0.890854,01302,-0.07874,-0.11811,-0.102362,-0.03937,0.228346,-0.685039,-0.456693,-0.07874,4,2,0.890854,01303,0.173228,0.086614,0.173228,0.133858,-0.102362,0.795276,0.937008,0.173228,4,2,0.890854,01304,-0.125984,-0.031496,0.07874,0.503937,-0.307087,-0.086614,-0.086614,-0.275591,4,2,0.890854,01305,-0.031496,0.007874,